-174.488245116115	1148.5
-171.353866679816	1146.80004882813
-168.22051297009	1145.69995117188
-165.088183560586	1148.30004882813
-161.956878025242	1149.5
-158.826595938226	1148
-155.697336873968	1148.09997558594
-152.569100407157	1148.09997558594
-149.441886112741	1148
-146.315693565896	1147.80004882813
-143.190522342091	1148.80004882813
-140.066372017002	1149.90002441406
-136.943242166608	1148.69995117188
-133.82113236709	1148.40002441406
-130.7000421949	1145.40002441406
-127.579971226752	1148
-124.46091903959	1148.09997558594
-121.342885210617	1148.19995117188
-118.225869317289	1147.90002441406
-115.109870937295	1147.69995117188
-111.994889648578	1147.69995117188
-108.880925029339	1147.30004882813
-105.767976658009	1149.30004882813
-102.656044113272	1148.19995117188
-99.5451269740494	1148
-96.4352248195329	1148.30004882813
-93.3263372291173	1148
-90.2184637824824	1148.80004882813
-87.1116040595153	1147.09997558594
-84.0057576403752	1147.5
-80.9009241054446	1148.59997558594
-77.7971030353455	1147.59997558594
-74.6942940109553	1147.5
-71.5924966133822	1148.09997558594
-68.4917104239774	1145.69995117188
-65.3919350243307	1147.5
-62.2931699962624	1149.59997558594
-59.1954149218515	1149
-56.0986693833866	1147.80004882813
-53.0029329634189	1149.40002441406
-49.908205244721	1148.40002441406
-46.8144858103075	1148.90002441406
-43.7217742434262	1149.19995117188
-40.6300701275667	1147.59997558594
-37.5393730464434	1149.09997558594
-34.4496825840078	1144.80004882813
-31.3609983244403	1150.19995117188
-28.273319852166	1147.30004882813
-25.1866467518426	1149.5
-22.10097860834	1147.59997558594
-19.0163150067886	1148.80004882813
-15.9326555325185	1148
-12.8499997711119	1148.80004882813
-9.76834730837485	1150.5
-6.68769773034879	1148.69995117188
-3.60805062329064	1146.90002441406
-0.529405573692618	1154.90002441406
2.54823783170989	1156.09997558594
5.62488000599066	1154.90002441406
8.70052136196052	1148.80004882813
11.7751623122237	1147.69995117188
14.8488032691459	1148.19995117188
17.9214446448865	1146.69995117188
20.9930868513505	1149
24.0637303002531	1147.30004882813
27.1333754030514	1149
30.2020225710047	1147.80004882813
33.2696722151428	1148
36.3363247462699	1148.09997558594
39.401980574957	1148
42.4666401115817	1147.5
45.5303037662728	1148
48.5929719489461	1146.90002441406
51.6546450693084	1148.59997558594
54.7153235368463	1149.09997558594
57.7750077608055	1147.59997558594
60.8336981502356	1149.40002441406
63.891395113966	1148.30004882813
66.9480990605899	1149.19995117188
70.0038103985047	1151.40002441406
73.0585295358718	1148.5
76.112256880665	1150.5
79.1649928406108	1175.59997558594
82.21673782324	1234.30004882813
85.2674922358484	1325.69995117188
88.3172564855524	1388.59997558594
91.3660309792176	1397.30004882813
94.4138161235146	1431.5
97.4606123248875	1430.90002441406
100.506419989605	1421.69995117188
103.551239523679	1419
106.595071332926	1416.5
109.637915822959	1425.19995117188
112.679773399166	1424.40002441406
115.720644466743	1414.30004882813
118.760529430661	1417.59997558594
121.799428695683	1407
124.83734266637	1405.69995117188
127.874271747074	1410.90002441406
130.910216341928	1397.30004882813
133.945176854874	1392.59997558594
136.979153689627	1407.69995117188
140.012147249714	1384.09997558594
143.044157938449	1384.19995117188
146.075186158938	1379.69995117188
149.105232314081	1386.69995117188
152.134296806573	1377.80004882813
155.162380038908	1377.30004882813
158.189482413382	1375.90002441406
161.215604332062	1371.69995117188
164.240746196836	1381.30004882813
167.264908409388	1365.19995117188
170.288091371194	1375
173.310295483525	1368.80004882813
176.331521147454	1367.5
179.351768763859	1364.30004882813
182.3710387334	1364.09997558594
185.389331456545	1355.59997558594
188.40664733357	1355.5
191.422986764561	1361.09997558594
194.438350149375	1364.30004882813
197.452737887679	1363.59997558594
200.466150378974	1365.90002441406
203.478588022515	1368.19995117188
206.490051217389	1372
209.500540362482	1364.80004882813
212.510055856486	1368.19995117188
215.51859809788	1371.69995117188
218.526167484984	1371.40002441406
221.532764415869	1386.30004882813
224.538389288469	1388.19995117188
227.543042500475	1401.90002441406
230.546724449419	1401.30004882813
233.549435532609	1400.09997558594
236.551176147184	1402.69995117188
239.551946690085	1399.90002441406
242.551747558066	1409.30004882813
245.55057914767	1405.40002441406
248.548441855258	1413.90002441406
251.545336077006	1414.80004882813
254.541262208898	1414.19995117188
257.536220646712	1417.59997558594
260.53021178606	1418.09997558594
263.523236022356	1426
266.515293750805	1413.30004882813
269.506385366465	1431.90002441406
272.496511264158	1432.19995117188
275.485671838549	1442.30004882813
278.473867484101	1450.40002441406
281.461098595114	1432.09997558594
284.44736556567	1447.40002441406
287.432668789673	1445.19995117188
290.417008660864	1467.90002441406
293.400385572757	1474.19995117188
296.382799918725	1483.40002441406
299.364252091929	1508.59997558594
302.344742485338	1534.5
305.324271491768	1522.80004882813
308.302839503825	1495.09997558594
311.280446913945	1476.59997558594
314.257094114377	1462.30004882813
317.23278149719	1448
320.207509454258	1438.5
323.181278377283	1437.40002441406
326.154088657796	1434.09997558594
329.125940687134	1422.40002441406
332.096834856454	1412.59997558594
335.066771556737	1408.09997558594
338.035751178774	1416.30004882813
341.003774113189	1408.5
343.97084075043	1411
346.936951480745	1398.40002441406
349.902106694219	1398.40002441406
352.866306780769	1398.90002441406
355.82955213011	1400.30004882813
358.791843131792	1392.19995117188
361.753180175185	1400.09997558594
364.713563649499	1382.40002441406
367.672993943731	1395.19995117188
370.631471446741	1389.80004882813
373.588996547206	1387
376.545569633593	1390.19995117188
379.501191094236	1384
382.45586131727	1374.69995117188
385.409580690674	1380.80004882813
388.362349602236	1370.30004882813
391.314168439577	1365.5
394.265037590153	1371.30004882813
397.214957441235	1380.80004882813
400.16392837993	1368.09997558594
403.111950793165	1370.80004882813
406.059025067691	1365.90002441406
409.005151590118	1377.5
411.950330746855	1362.40002441406
414.894562924143	1367.5
417.837848508063	1371.80004882813
420.780187884513	1372.59997558594
423.721581439244	1370.09997558594
426.662029557819	1377
429.601532625628	1370.90002441406
432.540091027909	1374
435.477705149715	1368.19995117188
438.414375375956	1371.69995117188
441.350102091341	1367.19995117188
444.284885680439	1361.69995117188
447.218726527646	1338.69995117188
450.151625017169	1336.90002441406
453.083581533085	1336.59997558594
456.014596459275	1333.19995117188
458.94467017946	1331
461.87380307723	1332.40002441406
464.801995535963	1332.40002441406
467.72924793888	1343.5
470.655560669072	1346
473.580934109433	1344.30004882813
476.505368642699	1344.09997558594
479.42886465145	1359.19995117188
482.351422518103	1362.90002441406
485.273042624905	1378
488.193725353949	1388.19995117188
491.113471087159	1400.5
494.032280206301	1424.80004882813
496.950153092974	1447.09997558594
499.867090128629	1487
502.783091694533	1555.5
505.698158171827	1668.19995117188
508.612289941456	1898.69995117188
511.525487384225	2563
514.43775088078	4603.89990234375
517.3490808116	9111.7001953125
520.259477557008	11642.400390625
523.168941497168	8349.099609375
526.077473012083	4775.5
528.98507248161	3047.60009765625
531.891740285434	2323.39990234375
534.797476803086	1918.5
537.702282413949	1733.09997558594
540.606157497241	1598.19995117188
543.509102432012	1532.5
546.411117597179	1493.69995117188
549.312203371496	1455
552.212360133551	1425.59997558594
555.111588261787	1398.19995117188
558.009888134493	1393.90002441406
560.907260129786	1380.90002441406
563.803704625648	1369
566.699221999907	1361.59997558594
569.593812630219	1356.90002441406
572.487476894111	1353.09997558594
575.380215168932	1342.30004882813
578.272027831898	1346
581.162915260056	1340.30004882813
584.052877830319	1339
586.941915919431	1340.69995117188
589.830029903984	1334.69995117188
592.717220160442	1343.5
595.603487065095	1336.69995117188
598.488830994078	1334.69995117188
601.373252323396	1341.5
604.256751428889	1326.80004882813
607.139328686265	1341.69995117188
610.020984471038	1336.19995117188
612.90171915863	1353.90002441406
615.781533124278	1357.59997558594
618.660426743072	1366.09997558594
621.538400389971	1359.80004882813
624.415454439761	1356.5
627.291589267105	1346.90002441406
630.166805246513	1351.40002441406
633.041102752313	1345.30004882813
635.914482158742	1344.59997558594
638.786943839845	1331.59997558594
641.658488169547	1346.90002441406
644.529115521603	1333.09997558594
647.398826269641	1343.30004882813
650.267620787151	1348.59997558594
653.135499447438	1343.09997558594
656.002462623708	1346.30004882813
658.868510688984	1343.40002441406
661.733644016172	1344.30004882813
664.59786297802	1337.80004882813
667.461167947139	1347.90002441406
670.32355929598	1347.59997558594
673.185037396862	1340.69995117188
676.045602621965	1347.40002441406
678.905255343306	1347.80004882813
681.763995932795	1334.19995117188
684.621824762164	1335.40002441406
687.47874220302	1333.19995117188
690.334748626818	1338.09997558594
693.189844404876	1324.80004882813
696.044029908375	1310.30004882813
698.897305508341	1319.90002441406
701.749671575677	1325
704.601128481138	1315
707.451676595324	1305.5
710.301316288718	1311.40002441406
713.150047931639	1316.19995117188
715.997871894292	1327.30004882813
718.844788546713	1319.30004882813
721.690798258824	1314.59997558594
724.535901400393	1310.5
727.380098341057	1311.30004882813
730.223389450309	1311.69995117188
733.065775097502	1308
735.907255651861	1316.30004882813
738.747831482461	1316.69995117188
741.587502958238	1319.59997558594
744.426270448005	1314.19995117188
747.264134320431	1323.59997558594
750.101094944034	1315.30004882813
752.937152687221	1322.40002441406
755.772307918238	1333.59997558594
758.606561005211	1321.5
761.439912316121	1325
764.272362218816	1329.59997558594
767.103911081018	1319.5
769.934559270291	1322.5
772.764307154079	1326.90002441406
775.593155099695	1320.90002441406
778.42110347431	1328
781.248152644956	1323.09997558594
784.074302978539	1329.40002441406
786.899554841832	1328.09997558594
789.723908601474	1321.80004882813
792.547364623949	1327
795.369923275648	1327.40002441406
798.191584922798	1331.80004882813
801.012349931499	1333.80004882813
803.832218667714	1341
806.651191497303	1343.30004882813
809.469268785944	1334.5
812.286450899232	1343.30004882813
815.1027382026	1344.30004882813
817.918131061357	1343.80004882813
820.73262984068	1338.90002441406
823.546234905624	1348.19995117188
826.358946621095	1337.19995117188
829.170765351889	1356.5
831.981691462663	1337.09997558594
834.791725317936	1341.90002441406
837.600867282103	1334.19995117188
840.409117719429	1346.5
843.216476994053	1346.09997558594
846.022945469989	1342.69995117188
848.828523511098	1327.80004882813
851.633211481134	1337.30004882813
854.437009743721	1346.19995117188
857.239918662353	1334.30004882813
860.041938600383	1346.30004882813
862.843069921057	1344.5
865.643312987472	1346.19995117188
868.442668162604	1342.09997558594
871.241135809316	1335.59997558594
874.038716290324	1337.90002441406
876.835409968233	1346.69995117188
879.63121720551	1343.5
882.426138364494	1341.19995117188
885.22017380741	1339.30004882813
888.013323896339	1356.19995117188
890.805588993253	1352.59997558594
893.596969459993	1340.30004882813
896.387465658265	1337.80004882813
899.177077949666	1359.19995117188
901.965806695649	1346
904.75365225756	1348.5
907.540614996601	1347
910.326695273873	1348
913.111893450328	1358.09997558594
915.896209886813	1361.40002441406
918.679644944044	1356.90002441406
921.462198982604	1360.5
924.243872362968	1399.09997558594
927.02466544548	1417.59997558594
929.804578590358	1479.30004882813
932.583612157696	1523.40002441406
935.361766507473	1576.80004882813
938.13904199954	1637.80004882813
940.915438993633	1660.5
943.690957849354	1677.19995117188
946.465598926189	1655.59997558594
949.239362583496	1670.19995117188
952.012249180518	1682.40002441406
954.784259076376	1667.19995117188
957.555392630071	1679.59997558594
960.325650200475	1679.5
963.09503214635	1674.80004882813
965.863538826323	1671.19995117188
968.631170598912	1687.19995117188
971.397927822515	1688.19995117188
974.163810855393	1677.19995117188
976.928820055712	1706.80004882813
979.692955781498	1691.40002441406
982.456218390671	1688.5
985.218608241021	1659.5
987.980125690221	1599.5
990.740771095826	1550
993.500544815275	1513.30004882813
996.259447205875	1470.69995117188
999.017478624842	1446.40002441406
1001.77463942924	1443.19995117188
1004.53092997605	1418.80004882813
1007.28635062209	1421.40002441406
1010.0409017241	1399.19995117188
1012.79458363868	1391.90002441406
1015.54739672233	1383.40002441406
1018.29934133142	1376.59997558594
1021.05041782219	1364.90002441406
1023.8006265508	1369.19995117188
1026.54996787325	1347.30004882813
1029.29844214545	1347.69995117188
1032.0460497232	1349.80004882813
1034.79279096215	1342.80004882813
1037.53866621786	1324
1040.28367584578	1322.09997558594
1043.02782020123	1324.09997558594
1045.7710996394	1320.59997558594
1048.51351451539	1322.5
1051.25506518417	1323.30004882813
1053.99575200061	1319.59997558594
1056.73557531945	1317.59997558594
1059.4745354953	1321
1062.2126328827	1320.5
1064.94986783605	1310.40002441406
1067.68624070961	1316.59997558594
1070.42175185757	1319.19995117188
1073.15640163398	1317.19995117188
1075.89019039278	1319
1078.6231184878	1319.19995117188
1081.35518627276	1313.40002441406
1084.08639410125	1326.5
1086.81674232676	1312.80004882813
1089.54623130267	1318.59997558594
1092.27486138224	1317
1095.00263291861	1320.80004882813
1097.72954626482	1326.09997558594
1100.45560177378	1324.19995117188
1103.18079979831	1317.40002441406
1105.90514069112	1322.09997558594
1108.62862480477	1319.19995117188
1111.35125249175	1319.69995117188
1114.07302410441	1322.40002441406
1116.793939995	1322.09997558594
1119.51400051566	1324.69995117188
1122.23320601841	1321.40002441406
1124.95155685517	1319.09997558594
1127.66905337774	1326.40002441406
1130.38569593782	1323
1133.10148488697	1313.69995117188
1135.81642057667	1329.30004882813
1138.53050335829	1327.69995117188
1141.24373358306	1316.69995117188
1143.95611160214	1320.69995117188
1146.66763776654	1319.30004882813
1149.37831242718	1307.59997558594
1152.08813593487	1318.09997558594
1154.7971086403	1323.19995117188
1157.50523089408	1319.69995117188
1160.21250304667	1317.30004882813
1162.91892544844	1321.30004882813
1165.62449844965	1326.19995117188
1168.32922240045	1323.5
1171.0330976509	1316.90002441406
1173.73612455091	1322
1176.43830345031	1331.5
1179.13963469882	1328.19995117188
1181.84011864604	1328.40002441406
1184.53975564147	1339.59997558594
1187.23854603451	1321.69995117188
1189.93649017442	1322.09997558594
1192.63358841039	1329.09997558594
1195.32984109149	1325.09997558594
1198.02524856667	1322.5
1200.71981118478	1329.30004882813
1203.41352929457	1331.09997558594
1206.10640324467	1337.40002441406
1208.79843338361	1327.69995117188
1211.48962005981	1338.40002441406
1214.17996362159	1341
1216.86946441716	1339.59997558594
1219.55812279461	1333
1222.24593910194	1340.69995117188
1224.93291368704	1336.5
1227.61904689769	1341.09997558594
1230.30433908157	1338.69995117188
1232.98879058625	1336
1235.67240175918	1336.69995117188
1238.35517294773	1335.69995117188
1241.03710449915	1348.5
1243.71819676058	1341.19995117188
1246.39845007907	1341.90002441406
1249.07786480155	1341.40002441406
1251.75644127485	1348.19995117188
1254.43417984571	1338.59997558594
1257.11108086072	1350.90002441406
1259.78714466643	1346.5
1262.46237160921	1350.69995117188
1265.1367620354	1345.59997558594
1267.81031629118	1347.59997558594
1270.48303472266	1343.19995117188
1273.15491767583	1346
1275.82596549657	1342.80004882813
1278.49617853067	1351
1281.16555712381	1349.69995117188
1283.83410162156	1355.59997558594
1286.50181236939	1348.69995117188
1289.16868971269	1352
1291.8347339967	1348.5
1294.49994556659	1357.19995117188
1297.16432476743	1364.40002441406
1299.82787194415	1354.09997558594
1302.49058744163	1357.59997558594
1305.15247160459	1352.80004882813
1307.81352477769	1360.30004882813
1310.47374730548	1358.19995117188
1313.1331395324	1366.69995117188
1315.79170180277	1365.59997558594
1318.44943446083	1355.30004882813
1321.10633785073	1375.30004882813
1323.76241231648	1365.30004882813
1326.41765820202	1372.30004882813
1329.07207585117	1370.5
1331.72566560766	1375.59997558594
1334.3784278151	1377.59997558594
1337.03036281703	1374.19995117188
1339.68147095686	1374.59997558594
1342.33175257789	1378.40002441406
1344.98120802335	1376.30004882813
1347.62983763636	1377.80004882813
1350.27764175994	1369.40002441406
1352.92462073697	1376.90002441406
1355.57077491028	1376.69995117188
1358.21610462259	1371.19995117188
1360.86061021649	1367.30004882813
1363.50429203449	1382.40002441406
1366.14715041901	1381.59997558594
1368.78918571234	1377.40002441406
1371.4303982567	1365.5
1374.07078839419	1376.19995117188
1376.71035646681	1366
1379.34910281647	1363.59997558594
1381.98702778498	1365.90002441406
1384.62413171402	1375.19995117188
1387.26041494523	1378.59997558594
1389.89587782008	1370.40002441406
1392.53052068001	1362.5
1395.16434386629	1365.40002441406
1397.79734772015	1371.40002441406
1400.42953258269	1368
1403.0608987949	1373.09997558594
1405.69144669771	1368.90002441406
1408.32117663193	1366.09997558594
1410.95008893825	1368.30004882813
1413.57818395728	1365.19995117188
1416.20546202954	1365.59997558594
1418.83192349543	1361
1421.45756869528	1365.69995117188
1424.08239796929	1364.40002441406
1426.70641165757	1372.69995117188
1429.32961010016	1362.5
1431.95199363695	1366.80004882813
1434.57356260778	1379.90002441406
1437.19431735237	1370.30004882813
1439.81425821033	1360.69995117188
1442.43338552118	1371
1445.05169962437	1362.09997558594
1447.66920085921	1373.30004882813
1450.28588956493	1381.09997558594
1452.90176608067	1365.09997558594
1455.51683074547	1353.80004882813
1458.13108389825	1355.69995117188
1460.74452587786	1360.5
1463.35715702303	1357.80004882813
1465.96897767243	1366.69995117188
1468.57998816457	1362.40002441406
1471.19018883794	1357.80004882813
1473.79958003086	1368.40002441406
1476.4081620816	1366.90002441406
1479.01593532831	1365.09997558594
1481.62290010905	1350.59997558594
1484.22905676179	1351.59997558594
1486.83440562438	1375.30004882813
1489.43894703461	1366.19995117188
1492.04268133016	1366.59997558594
1494.64560884857	1370.19995117188
1497.24772992735	1374.90002441406
1499.84904490388	1358.80004882813
1502.44955411543	1378.40002441406
1505.0492578992	1361.69995117188
1507.64815659229	1367.5
1510.24625053168	1371
1512.84354005429	1370.40002441406
1515.44002549691	1370.80004882813
1518.03570719625	1376
1520.63058548894	1370.30004882813
1523.22466071147	1378.90002441406
1525.81793320028	1372.30004882813
1528.41040329169	1385.5
1531.00207132192	1379.30004882813
1533.59293762712	1383.90002441406
1536.18300254332	1383.5
1538.77226640645	1395.5
1541.36072955237	1396.19995117188
1543.94839231684	1395.09997558594
1546.53525503548	1393
1549.12131804389	1413.19995117188
1551.70658167752	1413.19995117188
1554.29104627173	1430.09997558594
1556.87471216181	1434.5
1559.45757968292	1449.40002441406
1562.03964917017	1476
1564.62092095853	1502.69995117188
1567.2013953829	1556.90002441406
1569.78107277808	1594.09997558594
1572.35995347877	1646.80004882813
1574.93803781959	1739.30004882813
1577.51532613504	1824.09997558594
1580.09181875956	1922.90002441406
1582.66751602746	1936.80004882813
1585.24241827297	1915.90002441406
1587.81652583024	1846
1590.3898390333	1740.09997558594
1592.96235821611	1637.90002441406
1595.53408371251	1567
1598.10501585628	1514
1600.67515498106	1477.09997558594
1603.24450142043	1449.5
1605.81305550788	1438
1608.38081757677	1427.90002441406
1610.9477879604	1406.69995117188
1613.51396699198	1409.5
1616.07935500458	1394
1618.64395233122	1407.90002441406
1621.20775930483	1391.30004882813
1623.7707762582	1385.09997558594
1626.33300352408	1384.5
1628.89444143508	1369.19995117188
1631.45509032376	1374.59997558594
1634.01495052255	1373
1636.5740223638	1359.59997558594
1639.13230617978	1360.40002441406
1641.68980230264	1362.30004882813
1644.24651106446	1368.69995117188
1646.80243279721	1353.09997558594
1649.35756783278	1359.69995117188
1651.91191650296	1349.80004882813
1654.46547913944	1353.19995117188
1657.01825607383	1343.80004882813
1659.57024763764	1345.80004882813
1662.12145416229	1352
1664.6718759791	1352.09997558594
1667.2215134193	1344.5
1669.77036681404	1346.5
1672.31843649435	1350.30004882813
1674.8657227912	1342.59997558594
1677.41222603543	1333.80004882813
1679.95794655782	1340.30004882813
1682.50288468904	1332.19995117188
1685.04704075968	1336.30004882813
1687.59041510022	1338.30004882813
1690.13300804106	1321.59997558594
1692.67481991249	1335.5
1695.21585104474	1333.80004882813
1697.75610176791	1333.30004882813
1700.29557241205	1332.90002441406
1702.83426330707	1339.69995117188
1705.37217478282	1332.80004882813
1707.90930716905	1339.40002441406
1710.44566079541	1337.5
1712.98123599146	1334.09997558594
1715.51603308669	1334.59997558594
1718.05005241045	1334.80004882813
1720.58329429205	1339.59997558594
1723.11575906067	1328.40002441406
1725.64744704542	1347.80004882813
1728.17835857532	1344.30004882813
1730.70849397927	1346.69995117188
1733.2378535861	1331.09997558594
1735.76643772453	1331.90002441406
1738.29424672323	1337
1740.82128091074	1336.30004882813
1743.3475406155	1338.40002441406
1745.87302616589	1335.80004882813
1748.39773789019	1338.80004882813
1750.92167611656	1328.59997558594
1753.44484117311	1332.90002441406
1755.96723338783	1342
1758.48885308862	1346
1761.00970060331	1327.59997558594
1763.52977625961	1336.5
1766.04908038514	1340.19995117188
1768.56761330746	1331
1771.08537535401	1343.19995117188
1773.60236685214	1336.30004882813
1776.11858812912	1342
1778.63403951211	1336.90002441406
1781.14872132821	1335.30004882813
1783.6626339044	1328.59997558594
1786.17577756757	1337.30004882813
1788.68815264454	1340.09997558594
1791.199759462	1336
1793.7105983466	1329.80004882813
1796.22066962486	1336.69995117188
1798.72997362322	1326.69995117188
1801.23851066803	1330.40002441406
1803.74628108554	1338.5
1806.25328520193	1341.80004882813
1808.75952334326	1341.80004882813
1811.2649958355	1326.59997558594
1813.76970300458	1334.09997558594
1816.27364517628	1332.69995117188
1818.77682267629	1338.5
1821.27923583026	1333.5
1823.78088496369	1340.19995117188
1826.28177040204	1334.30004882813
1828.78189247064	1326
1831.28125149473	1343.40002441406
1833.77984779949	1325.90002441406
1836.27768170998	1333.59997558594
1838.77475355119	1331.69995117188
1841.271063648	1343.19995117188
1843.76661232521	1338.59997558594
1846.26139990751	1333.80004882813
1848.75542671954	1341
1851.2486930858	1338.09997558594
1853.74119933074	1335.59997558594
1856.23294577869	1332.59997558594
1858.72393275391	1348.40002441406
1861.21416058054	1335.30004882813
1863.70362958267	1344.5
1866.19234008426	1327.30004882813
1868.6802924092	1329.59997558594
1871.16748688129	1332.09997558594
1873.65392382424	1340
1876.13960356164	1334.59997558594
1878.62452641704	1339.80004882813
1881.10869271384	1329.40002441406
1883.59210277541	1339.5
1886.07475692498	1343.69995117188
1888.55665548571	1332.30004882813
1891.03779878067	1338.30004882813
1893.51818713284	1337.40002441406
1895.99782086509	1331.30004882813
1898.47670030024	1331.59997558594
1900.95482576096	1340.40002441406
1903.43219756989	1325.5
1905.90881604954	1339.59997558594
1908.38468152235	1341.40002441406
1910.85979431064	1332.30004882813
1913.33415473668	1342.59997558594
1915.80776312261	1324.19995117188
1918.28061979051	1324.69995117188
1920.75272506234	1335.40002441406
1923.22407926001	1328.19995117188
1925.69468270529	1333.90002441406
1928.16453571989	1331.19995117188
1930.63363862544	1331.40002441406
1933.10199174344	1329.19995117188
1935.56959539533	1338.30004882813
1938.03644990244	1331.40002441406
1940.50255558603	1329.80004882813
1942.96791276726	1331.09997558594
1945.43252176718	1333.30004882813
1947.8963829068	1322.09997558594
1950.35949650697	1336
1952.8218628885	1325.40002441406
1955.2834823721	1333.30004882813
1957.74435527836	1341.40002441406
1960.20448192784	1333.80004882813
1962.66386264093	1328.69995117188
1965.12249773799	1334.90002441406
1967.58038753927	1325.80004882813
1970.03753236493	1334.5
1972.49393253504	1330.19995117188
1974.94958836957	1337.40002441406
1977.4045001884	1336.09997558594
1979.85866831133	1320.80004882813
1982.31209305807	1341.09997558594
1984.76477474823	1333.80004882813
1987.21671370133	1335.40002441406
1989.6679102368	1340.90002441406
1992.11836467399	1337.80004882813
1994.56807733213	1343.5
1997.0170485304	1334.09997558594
1999.46527858786	1337.5
2001.91276782348	1325.40002441406
2004.35951655615	1336
2006.80552510467	1334.40002441406
2009.25079378774	1332.59997558594
2011.69532292397	1333.19995117188
2014.13911283188	1333.69995117188
2016.58216382991	1347.80004882813
2019.02447623639	1336.59997558594
2021.46605036956	1330.30004882813
2023.90688654761	1336
2026.34698508858	1334.09997558594
2028.78634631045	1331.80004882813
2031.22497053111	1328.80004882813
2033.66285806835	1331.90002441406
2036.10000923987	1328.5
2038.53642436328	1335.09997558594
2040.97210375611	1336
2043.40704773578	1332.30004882813
2045.84125661964	1325.30004882813
2048.27473072492	1325.09997558594
2050.70747036878	1331.80004882813
2053.13947586829	1333
2055.57074754041	1333.19995117188
2058.00128570205	1327.19995117188
2060.43109066998	1337.5
2062.8601627609	1331.90002441406
2065.28850229143	1331
2067.71610957807	1333.09997558594
2070.14298493726	1320.09997558594
2072.56912868532	1325.59997558594
2074.99454113851	1327.30004882813
2077.41922261297	1332.5
2079.84317342476	1322.19995117188
2082.26639388986	1326.69995117188
2084.68888432414	1334.80004882813
2087.1106450434	1336.09997558594
2089.53167636331	1330.30004882813
2091.95197859949	1331.90002441406
2094.37155206745	1325.30004882813
2096.79039708261	1330.40002441406
2099.20851396029	1327.09997558594
2101.62590301575	1327.59997558594
2104.04256456411	1326.09997558594
2106.45849892045	1331.40002441406
2108.87370639971	1329.90002441406
2111.28818731677	1321.90002441406
2113.70194198641	1331.80004882813
2116.11497072333	1332.09997558594
2118.52727384211	1335.5
2120.93885165726	1325.69995117188
2123.34970448321	1326.69995117188
2125.75983263425	1329.80004882813
2128.16923642463	1328
2130.57791616848	1332.59997558594
2132.98587217985	1326.69995117188
2135.3931047727	1328
2137.79961426089	1326.69995117188
2140.20540095818	1337.5
2142.61046517826	1324.30004882813
2145.01480723472	1322.09997558594
2147.41842744104	1334.19995117188
2149.82132611063	1325.59997558594
2152.22350355681	1327.30004882813
2154.62496009279	1328.30004882813
2157.0256960317	1325.09997558594
2159.42571168658	1326.19995117188
2161.82500737036	1318.69995117188
2164.22358339589	1324.59997558594
2166.62144007595	1327.80004882813
2169.01857772318	1322.30004882813
2171.41499665018	1326.30004882813
2173.81069716942	1331.30004882813
2176.20567959329	1325.09997558594
2178.59994423409	1332.69995117188
2180.99349140402	1318.30004882813
2183.38632141519	1316
2185.77843457964	1333.19995117188
2188.16983120927	1333.80004882813
2190.56051161594	1321.5
2192.95047611139	1333.59997558594
2195.33972500725	1326.59997558594
2197.72825861511	1326
2200.11607724641	1325.69995117188
2202.50318121254	1332.30004882813
2204.88957082477	1328.69995117188
2207.27524639429	1324.69995117188
2209.6602082322	1330
2212.0444566495	1333.09997558594
2214.4279919571	1330.69995117188
2216.81081446582	1314.5
2219.19292448638	1316.90002441406
2221.57432232942	1330.09997558594
2223.95500830547	1328.40002441406
2226.33498272498	1331.59997558594
2228.7142458983	1324.30004882813
2231.09279813569	1324
2233.47063974732	1327.59997558594
2235.84777104327	1325.09997558594
2238.2241923335	1332.59997558594
2240.59990392792	1329.09997558594
2242.97490613632	1318.90002441406
2245.34919926839	1329
2247.72278363376	1327
2250.09565954192	1324.19995117188
2252.46782730231	1325.59997558594
2254.83928722425	1317
2257.21003961698	1321.5
2259.58008478963	1328.19995117188
2261.94942305127	1322.30004882813
2264.31805471084	1315.5
2266.68598007721	1319.69995117188
2269.05319945914	1317.5
2271.4197131653	1329.09997558594
2273.78552150427	1321.59997558594
2276.15062478456	1321
2278.51502331454	1326.40002441406
2280.87871740252	1327.30004882813
2283.24170735671	1319.69995117188
2285.60399348521	1332.59997558594
2287.96557609605	1319.80004882813
2290.32645549714	1320.5
2292.68663199633	1316.40002441406
2295.04610590133	1336.69995117188
2297.40487751981	1328.09997558594
2299.76294715931	1325.19995117188
2302.12031512727	1320.5
2304.47698173107	1337.80004882813
2306.83294727796	1317.09997558594
2309.18821207512	1319.40002441406
2311.54277642963	1311.40002441406
2313.89664064847	1333.90002441406
2316.24980503852	1331.5
2318.6022699066	1327.69995117188
2320.95403555938	1318.80004882813
2323.30510230349	1322.5
2325.65547044542	1326.30004882813
2328.0051402916	1320.69995117188
2330.35411214835	1326
2332.7023863219	1323.30004882813
2335.04996311837	1321.80004882813
2337.39684284382	1320.19995117188
2339.74302580418	1322.80004882813
2342.08851230529	1318.59997558594
2344.43330265291	1315.80004882813
2346.7773971527	1327.09997558594
2349.12079611023	1322.69995117188
2351.46349983096	1331.09997558594
2353.80550862026	1310.90002441406
2356.14682278342	1324.90002441406
2358.48744262562	1329.69995117188
2360.82736845194	1318.30004882813
2363.16660056738	1323.30004882813
2365.50513927683	1327.80004882813
2367.8429848851	1315.90002441406
2370.1801376969	1321.90002441406
2372.51659801683	1314.80004882813
2374.85236614941	1330.69995117188
2377.18744239906	1322.59997558594
2379.52182707011	1321.59997558594
2381.85552046679	1324.5
2384.18852289322	1318.30004882813
2386.52083465345	1320
2388.85245605142	1327.80004882813
2391.18338739097	1321.59997558594
2393.51362897585	1316.69995117188
2395.84318110973	1318.69995117188
2398.17204409615	1330.90002441406
2400.50021823858	1326.59997558594
2402.82770384038	1318.59997558594
2405.15450120483	1317.5
2407.48061063509	1325.19995117188
2409.80603243426	1330.59997558594
2412.13076690529	1324.90002441406
2414.4548143511	1323.5
2416.77817507445	1327.19995117188
2419.10084937804	1328.59997558594
2421.42283756447	1335
2423.74413993625	1331.69995117188
2426.06475679575	1321.59997558594
2428.38468844531	1336.90002441406
2430.70393518711	1335.19995117188
2433.02249732329	1341
2435.34037515584	1337.19995117188
2437.65756898669	1341.5
2439.97407911767	1353.30004882813
2442.28990585049	1358.5
2444.60504948679	1364.09997558594
2446.91951032808	1361.80004882813
2449.23328867581	1358.90002441406
2451.54638483132	1367.80004882813
2453.85879909585	1355.19995117188
2456.17053177052	1360.30004882813
2458.48158315639	1352
2460.79195355441	1343.69995117188
2463.10164326542	1345.19995117188
2465.41065259017	1344.30004882813
2467.71898182932	1345.80004882813
2470.02663128344	1342.69995117188
2472.33360125296	1348.80004882813
2474.63989203825	1337.19995117188
2476.94550393958	1328.30004882813
2479.25043725712	1336.80004882813
2481.55469229093	1339.30004882813
2483.85826934098	1341.09997558594
2486.16116870713	1324.59997558594
2488.46339068916	1331.80004882813
2490.76493558676	1333.59997558594
2493.06580369949	1341.59997558594
2495.36599532684	1326.59997558594
2497.66551076817	1324.69995117188
2499.96435032278	1327.5
2502.26251428984	1329.40002441406
2504.56000296845	1328.40002441406
2506.85681665757	1327.59997558594
2509.15295565612	1321.90002441406
2511.44842026287	1322.19995117188
2513.74321077651	1323.80004882813
2516.03732749563	1319.80004882813
2518.33077071873	1328.80004882813
2520.62354074419	1325.59997558594
2522.91563787031	1324.40002441406
2525.20706239528	1328.30004882813
2527.49781461721	1318.90002441406
2529.78789483408	1325.5
2532.0773033438	1319.90002441406
2534.36604044416	1314.90002441406
2536.65410643286	1323.90002441406
2538.9415016075	1319.40002441406
2541.22822626558	1320.5
2543.51428070449	1325.40002441406
2545.79966522154	1325.30004882813
2548.08438011393	1325.90002441406
2550.36842567876	1330.5
2552.65180221302	1326.40002441406
2554.93451001363	1322.80004882813
2557.21654937738	1325
2559.49792060096	1324.90002441406
2561.77862398098	1319.59997558594
2564.05865981395	1318.90002441406
2566.33802839626	1328.69995117188
2568.61673002421	1321.30004882813
2570.89476499399	1321.30004882813
2573.17213360172	1321.5
2575.44883614338	1323.69995117188
2577.72487291489	1328.30004882813
2580.00024421203	1334.30004882813
2582.27495033048	1329.30004882813
2584.54899156587	1327.5
2586.82236821368	1330.09997558594
2589.0950805693	1329.90002441406
2591.36712892802	1338.69995117188
2593.63851358505	1334.40002441406
2595.90923483547	1332
2598.17929297426	1334
2600.44868829631	1343.09997558594
2602.71742109642	1342.59997558594
2604.98549166927	1345.90002441406
2607.25290030944	1342.09997558594
2609.51964731142	1346.5
2611.78573296958	1354.40002441406
2614.05115757822	1361.30004882813
2616.31592143149	1358.80004882813
2618.58002482349	1368.80004882813
2620.84346804817	1380.30004882813
2623.10625139942	1382.69995117188
2625.36837517101	1394
2627.6298396566	1413
2629.89064514976	1427.5
2632.15079194395	1432.90002441406
2634.41028033254	1465.19995117188
2636.66911060878	1492.59997558594
2638.92728306582	1513.5
2641.18479799672	1549.09997558594
2643.44165569444	1587.59997558594
2645.69785645182	1630.40002441406
2647.95340056162	1678.90002441406
2650.20828831645	1755.09997558594
2652.46252000888	1817.90002441406
2654.71609593134	1866.90002441406
2656.96901637616	1944.59997558594
2659.22128163557	2002.5
2661.47289200171	2058.89990234375
2663.72384776659	2095.10009765625
2665.97414922213	2129.5
2668.22379666017	2161.19995117188
2670.4727903724	2181.69995117188
2672.72113065044	2132.80004882813
2674.9688177858	2098.39990234375
2677.21585206988	2064.5
2679.46223379399	1999.59997558594
2681.70796324931	1961.19995117188
2683.95304072694	1887.40002441406
2686.19746651787	1809.69995117188
2688.44124091298	1794
2690.68436420305	1714.19995117188
2692.92683667876	1671.69995117188
2695.16865863068	1607.40002441406
2697.40983034928	1583.40002441406
2699.65035212492	1539.80004882813
2701.89022424785	1522.30004882813
2704.12944700824	1483.09997558594
2706.36802069612	1468.09997558594
2708.60594560146	1456.19995117188
2710.84322201407	1428.30004882813
2713.0798502237	1413
2715.31583051998	1400.59997558594
2717.55116319244	1373.40002441406
2719.78584853048	1392.69995117188
2722.01988682344	1374.30004882813
2724.2532783605	1372.30004882813
2726.48602343079	1366.5
2728.71812232329	1343.80004882813
2730.9495753269	1354.09997558594
2733.1803827304	1338
2735.4105448225	1330.90002441406
2737.64006189173	1334.80004882813
2739.86893422659	1322.5
2742.09716211544	1316.19995117188
2744.32474584653	1331.90002441406
2746.55168570802	1329.5
2748.77798198795	1323.40002441406
2751.00363497426	1314.69995117188
2753.22864495479	1325.5
2755.45301221725	1309.40002441406
2757.67673704928	1304.40002441406
2759.89981973839	1310.5
2762.12226057198	1311.59997558594
2764.34405983734	1299
2766.56521782169	1305.59997558594
2768.7857348121	1313.90002441406
2771.00561109555	1310.40002441406
2773.22484695892	1316.90002441406
2775.44344268897	1306.09997558594
2777.66139857236	1311.40002441406
2779.87871489564	1297.80004882813
2782.09539194526	1305.30004882813
2784.31143000754	1309.90002441406
2786.52682936873	1299
2788.74159031494	1294.09997558594
2790.95571313218	1310.5
2793.16919810637	1296.19995117188
2795.38204552329	1296.40002441406
2797.59425566864	1287.69995117188
2799.805828828	1300.5
2802.01676528685	1302.5
2804.22706533056	1293.80004882813
2806.43672924436	1301
2808.64575731343	1301.5
2810.85414982279	1301
2813.06190705738	1296.69995117188
2815.26902930203	1294.90002441406
2817.47551684145	1287.90002441406
2819.68136996024	1302
2821.88658894291	1292
2824.09117407383	1289.40002441406
2826.29512563729	1288.69995117188
2828.49844391747	1300.09997558594
2830.70112919842	1296.30004882813
2832.90318176409	1287.30004882813
2835.10460189833	1296
2837.30538988487	1293.5
2839.50554600732	1295.30004882813
2841.70507054922	1289.59997558594
2843.90396379395	1291
2846.10222602482	1294.30004882813
2848.29985752501	1294.40002441406
2850.49685857759	1289.80004882813
2852.69322946553	1296.69995117188
2854.88897047169	1302.30004882813
2857.08408187879	1290.09997558594
2859.27856396949	1286.69995117188
2861.4724170263	1292.19995117188
2863.66564133164	1283.80004882813
2865.85823716781	1289.80004882813
2868.050204817	1292.69995117188
2870.2415445613	1289.30004882813
2872.43225668266	1283
2874.62234146295	1294.90002441406
2876.81179918393	1292.19995117188
2879.00063012722	1288.69995117188
2881.18883457435	1286.30004882813
2883.37641280674	1296.30004882813
2885.56336510569	1283.09997558594
2887.7496917524	1284.59997558594
2889.93539302793	1280.69995117188
2892.12046921326	1287.30004882813
2894.30492058926	1296.59997558594
2896.48874743666	1291
2898.67195003609	1281.19995117188
2900.85452866809	1283.90002441406
2903.03648361305	1279.59997558594
2905.21781515128	1279.59997558594
2907.39852356295	1276.19995117188
2909.57860912814	1286.80004882813
2911.75807212682	1276.30004882813
2913.93691283883	1287.19995117188
2916.1151315439	1278.30004882813
2918.29272852166	1277.59997558594
2920.46970405161	1280.40002441406
2922.64605841316	1285.80004882813
2924.82179188558	1284.90002441406
2926.99690474805	1278
2929.17139727962	1273.59997558594
2931.34526975924	1274
2933.51852246574	1276.5
2935.69115567784	1277.69995117188
2937.86316967414	1279.40002441406
2940.03456473313	1274
2942.20534113318	1275
2944.37549915256	1280.19995117188
2946.54503906942	1276.69995117188
2948.71396116179	1276.30004882813
2950.8822657076	1280
2953.04995298465	1264
2955.21702327062	1274.19995117188
2957.38347684312	1275.69995117188
2959.54931397958	1267.59997558594
2961.71453495737	1270.80004882813
2963.87914005372	1262.19995117188
2966.04312954574	1280.5
2968.20650371045	1269.5
2970.36926282472	1271.5
2972.53140716535	1274.59997558594
2974.69293700897	1271.80004882813
2976.85385263216	1271.09997558594
2979.01415431133	1272.40002441406
2981.17384232278	1268.90002441406
2983.33291694274	1268.5
2985.49137844726	1273.19995117188
2987.64922711234	1262.5
2989.8064632138	1268.19995117188
2991.9630870274	1269.69995117188
2994.11909882875	1268.59997558594
2996.27449889334	1269.40002441406
2998.42928749659	1271.19995117188
3000.58346491374	1265.40002441406
3002.73703141997	1265
3004.8899872903	1262.90002441406
3007.04233279965	1269
3009.19406822284	1263.59997558594
3011.34519383455	1267.30004882813
3013.49570990936	1261.80004882813
3015.64561672172	1268.30004882813
3017.79491454597	1262.09997558594
3019.94360365632	1261.30004882813
3022.09168432689	1264.69995117188
3024.23915683165	1266
3026.38602144448	1262
3028.53227843913	1269.19995117188
3030.67792808923	1259.90002441406
3032.82297066831	1261.09997558594
3034.96740644975	1258.09997558594
3037.11123570684	1257.40002441406
3039.25445871273	1262.69995117188
3041.39707574049	1259
3043.53908706303	1265.5
3045.68049295316	1259.19995117188
3047.82129368358	1263.40002441406
3049.96148952684	1256.90002441406
3052.1010807554	1257.5
3054.24006764161	1257.80004882813
3056.37845045767	1254.09997558594
3058.51622947568	1264.09997558594
3060.65340496763	1257.80004882813
3062.78997720535	1258.30004882813
3064.92594646061	1257.19995117188
3067.06131300501	1257.59997558594
3069.19607711007	1255.69995117188
3071.33023904715	1263.30004882813
3073.46379908752	1254.69995117188
3075.59675750233	1258.5
3077.7291145626	1257
3079.86087053922	1257.90002441406
3081.99202570299	1255
3084.12258032456	1251.80004882813
3086.25253467448	1249
3088.38188902317	1255.59997558594
3090.51064364093	1249.09997558594
3092.63879879794	1255.5
3094.76635476428	1251
3096.89331180986	1256.69995117188
3099.01967020452	1261.40002441406
3101.14543021796	1254.30004882813
3103.27059211975	1255.40002441406
3105.39515617934	1254.09997558594
3107.51912266608	1250.30004882813
3109.64249184919	1254.40002441406
3111.76526399774	1255.19995117188
3113.88743938072	1251.90002441406
3116.00901826698	1245.80004882813
3118.13000092523	1254.19995117188
3120.2503876241	1251.09997558594
3122.37017863206	1254.30004882813
3124.48937421748	1251.30004882813
3126.6079746486	1255.19995117188
3128.72598019354	1251
3130.84339112029	1256.09997558594
3132.96020769673	1257.69995117188
3135.07643019061	1255.30004882813
3137.19205886957	1251.5
3139.3070940011	1247.09997558594
3141.42153585259	1250.80004882813
3143.5353846913	1246.90002441406
3145.64864078438	1240.09997558594
3147.76130439882	1251.80004882813
3149.87337580154	1252.30004882813
3151.98485525929	1244
3154.09574303872	1245
3156.20603940634	1238.90002441406
3158.31574462857	1248.69995117188
3160.42485897167	1245
3162.53338270181	1249.19995117188
3164.64131608498	1247.30004882813
3166.74865938712	1240.69995117188
3168.85541287398	1248.30004882813
3170.96157681123	1250.69995117188
3173.0671514644	1244.30004882813
3175.17213709889	1236.69995117188
3177.27653397998	1249.90002441406
3179.38034237284	1245.19995117188
3181.48356254248	1247.59997558594
3183.58619475382	1246.30004882813
3185.68823927165	1244
3187.78969636061	1247.80004882813
3189.89056628524	1245.90002441406
3191.99084930995	1254.09997558594
3194.09054569901	1236.09997558594
3196.18965571659	1241.90002441406
3198.28817962671	1251.19995117188
3200.38611769327	1237.69995117188
3202.48347018006	1246.30004882813
3204.58023735073	1244.40002441406
3206.67641946881	1247.40002441406
3208.77201679769	1245.09997558594
3210.86702960065	1244.19995117188
3212.96145814084	1242.80004882813
3215.05530268128	1247.19995117188
3217.14856348487	1245.80004882813
3219.24124081437	1245.19995117188
3221.33333493243	1242.40002441406
3223.42484610157	1248.59997558594
3225.51577458416	1261.59997558594
3227.60612064247	1263.09997558594
3229.69588453864	1263
3231.78506653466	1265.40002441406
3233.87366689244	1263.59997558594
3235.9616858737	1265.69995117188
3238.04912374008	1269.40002441406
3240.13598075307	1271.40002441406
3242.22225717405	1265.59997558594
3244.30795326425	1264.09997558594
3246.39306928479	1256.69995117188
3248.47760549664	1252.09997558594
3250.56156216068	1253.30004882813
3252.64493953762	1243.30004882813
3254.72773788807	1243.40002441406
3256.8099574725	1246.40002441406
3258.89159855124	1237
3260.97266138451	1238
3263.05314623241	1239.69995117188
3265.13305335488	1239.40002441406
3267.21238301175	1234.19995117188
3269.29113546272	1235.69995117188
3271.36931096736	1235.30004882813
3273.4469097851	1234.5
3275.52393217526	1232
3277.60037839702	1235.09997558594
3279.67624870941	1232.90002441406
3281.75154337138	1232.59997558594
3283.8262626417	1234
3285.90040677904	1233.40002441406
3287.97397604193	1231.30004882813
3290.04697068876	1225.80004882813
3292.11939097781	1227.09997558594
3294.19123716721	1225.40002441406
3296.26250951497	1239.69995117188
3298.33320827897	1227.40002441406
3300.40333371696	1232.09997558594
3302.47288608655	1224.80004882813
3304.54186564524	1230.69995117188
3306.61027265036	1230.59997558594
3308.67810735915	1228.5
3310.74537002869	1223.90002441406
3312.81206091594	1227.90002441406
3314.87818027774	1227.19995117188
3316.94372837077	1224.5
3319.00870545161	1224.90002441406
3321.07311177668	1225.5
3323.13694760229	1228.09997558594
3325.2002131846	1223.09997558594
3327.26290877964	1227.69995117188
3329.32503464334	1220.40002441406
3331.38659103145	1232
3333.4475781996	1230.40002441406
3335.50799640332	1229
3337.56784589797	1226.80004882813
3339.62712693879	1222.90002441406
3341.68583978089	1220.40002441406
3343.74398467924	1224.80004882813
3345.80156188869	1221.40002441406
3347.85857166394	1220.09997558594
3349.91501425956	1217
3351.97088992999	1222.80004882813
3354.02619892956	1222.90002441406
3356.0809415124	1224.09997558594
3358.13511793259	1222.09997558594
3360.18872844401	1222.30004882813
3362.24177330044	1215.90002441406
3364.29425275552	1219.59997558594
3366.34616706274	1220.80004882813
3368.39751647548	1222.90002441406
3370.44830124696	1226
3372.49852163029	1222.69995117188
3374.54817787843	1220.30004882813
3376.5972702442	1214.09997558594
3378.64579898031	1222.30004882813
3380.69376433931	1219.5
3382.74116657361	1212.69995117188
3384.78800593552	1216.69995117188
3386.83428267718	1222.19995117188
3388.8799970506	1211.19995117188
3390.92514930767	1218.69995117188
3392.96973970014	1218.59997558594
3395.01376847962	1215.59997558594
3397.05723589757	1216.40002441406
3399.10014220533	1223.90002441406
3401.1424876541	1216.40002441406
3403.18427249495	1216.59997558594
3405.22549697881	1222.59997558594
3407.26616135646	1218.09997558594
3409.30626587856	1219.19995117188
3411.34581079563	1213.69995117188
3413.38479635805	1215.19995117188
3415.42322281605	1212
3417.46109041976	1220.19995117188
3419.49839941912	1211.59997558594
3421.53515006399	1216.59997558594
3423.57134260405	1216.80004882813
3425.60697728886	1212.5
3427.64205436783	1211.69995117188
3429.67657409025	1215.09997558594
3431.71053670525	1213.5
3433.74394246185	1216.30004882813
3435.77679160891	1210.5
3437.80908439515	1208
3439.84082106917	1212.90002441406
3441.87200187943	1212.09997558594
3443.90262707421	1215.40002441406
3445.93269690172	1210.5
3447.96221160996	1205.19995117188
3449.99117144686	1209.19995117188
3452.01957666015	1210.19995117188
3454.04742749746	1210.40002441406
3456.07472420626	1211.30004882813
3458.1014670339	1209.09997558594
3460.12765622756	1207.09997558594
3462.15329203432	1216.5
3464.17837470108	1209.59997558594
3466.20290447463	1203.09997558594
3468.22688160161	1209.59997558594
3470.25030632851	1204
3472.2731789017	1211.80004882813
3474.29549956739	1210.09997558594
3476.31726857166	1208.09997558594
3478.33848616045	1206.19995117188
3480.35915257955	1206.09997558594
3482.37926807462	1209.90002441406
3484.39883289117	1206.69995117188
3486.41784727458	1206.09997558594
3488.43631147007	1206.69995117188
3490.45422572275	1203.09997558594
3492.47159027755	1205.30004882813
3494.4884053793	1206.69995117188
3496.50467127263	1207.5
3498.5203882021	1198.90002441406
3500.53555641208	1206.19995117188
3502.5501761468	1212.09997558594
3504.56424765036	1208.69995117188
3506.57777116674	1202.90002441406
3508.59074693973	1200.09997558594
3510.603175213	1198.80004882813
3512.61505623009	1201.30004882813
3514.62639023438	1202.69995117188
3516.63717746911	1204.19995117188
3518.64741817739	1203.30004882813
3520.65711260216	1205.30004882813
3522.66626098625	1198.09997558594
3524.67486357232	1203.30004882813
3526.6829206029	1205
3528.69043232037	1204.5
3530.69739896698	1198.09997558594
3532.70382078481	1199
3534.70969801583	1195.59997558594
3536.71503090183	1200
3538.71981968447	1203.09997558594
3540.72406460529	1202.5
3542.72776590566	1197.09997558594
3544.7309238268	1203.30004882813
3546.7335386098	1201.59997558594
3548.7356104956	1195.30004882813
3550.737139725	1201.30004882813
3552.73812653866	1200.5
3554.73857117706	1201.19995117188
3556.73847388059	1204.09997558594
3558.73783488944	1197.30004882813
3560.7366544437	1196.80004882813
3562.73493278328	1198.90002441406
3564.73267014797	1200.80004882813
3566.7298667774	1203.09997558594
3568.72652291106	1197
3570.72263878828	1198.69995117188
3572.71821464827	1200
3574.71325073007	1188.80004882813
3576.70774727257	1197.40002441406
3578.70170451455	1199.80004882813
3580.6951226946	1198.30004882813
3582.68800205121	1195.5
3584.68034282266	1200.69995117188
3586.67214524714	1197
3588.66340956266	1199.90002441406
3590.6541360071	1191.69995117188
3592.6443248182	1200.80004882813
3594.63397623352	1193.19995117188
3596.6230904905	1193.69995117188
3598.61166782642	1196.09997558594
3600.59970847842	1191.90002441406
3602.58721268348	1194
3604.57418067846	1197.59997558594
3606.56061270003	1197.69995117188
3608.54650898475	1193.30004882813
3610.53186976901	1198
3612.51669528905	1196.09997558594
3614.50098578098	1193
3616.48474148074	1196.5
3618.46796262413	1190.69995117188
3620.45064944681	1192.30004882813
3622.43280218428	1195.40002441406
3624.41442107188	1191.90002441406
3626.39550634484	1193
3628.37605823819	1190.5
3630.35607698685	1187.5
3632.33556282556	1194.40002441406
3634.31451598894	1191.09997558594
3636.29293671143	1191.09997558594
3638.27082522735	1190
3640.24818177084	1188.09997558594
3642.22500657592	1190.09997558594
3644.20129987644	1193.09997558594
3646.17706190608	1185.09997558594
3648.15229289843	1188
3650.12699308687	1189.69995117188
3652.10116270465	1186.19995117188
3654.07480198488	1192.80004882813
3656.04791116049	1193.69995117188
3658.02049046431	1189.80004882813
3659.99254012895	1190
3661.96406038692	1183.30004882813
3663.93505147056	1190.80004882813
3665.90551361207	1191.69995117188
3667.87544704349	1189.40002441406
3669.84485199668	1184.30004882813
3671.81372870341	1187.59997558594
3673.78207739523	1188.19995117188
3675.7498983036	1189.40002441406
3677.71719165977	1187.90002441406
3679.68395769488	1187
3681.65019663991	1186
3683.61590872567	1186.09997558594
3685.58109418282	1186.30004882813
3687.54575324187	1185.30004882813
3689.5098861332	1189.40002441406
3691.473493087	1183.5
3693.43657433333	1187
3695.39913010208	1189.5
3697.36116062301	1186.09997558594
3699.32266612569	1183
3701.28364683959	1188.69995117188
3703.24410299397	1188
3705.20403481795	1188.59997558594
3707.16344254053	1183.30004882813
3709.12232639052	1189.09997558594
3711.08068659659	1184.69995117188
3713.03852338724	1186.30004882813
3714.99583699084	1185.5
3716.95262763558	1184
3718.90889554951	1184
3720.86464096053	1184.30004882813
3722.81986409636	1184.5
3724.7745651846	1181.5
3726.72874445265	1184.69995117188
3728.6824021278	1183
3730.63553843715	1179.59997558594
3732.58815360767	1179.59997558594
3734.54024786615	1183.09997558594
3736.49182143924	1185.59997558594
3738.44287455343	1182.69995117188
3740.39340743505	1183.19995117188
3742.34342031027	1182.40002441406
3744.29291340513	1191.40002441406
3746.24188694546	1179.09997558594
3748.190341157	1181.30004882813
3750.13827626527	1178.80004882813
3752.08569249567	1183
3754.03259007345	1181.90002441406
3755.97896922367	1183.80004882813
3757.92483017124	1183.59997558594
3759.87017314094	1182.80004882813
3761.81499835737	1185.69995117188
3763.75930604498	1179.59997558594
3765.70309642803	1181.69995117188
3767.64636973068	1180.09997558594
3769.58912617689	1180.59997558594
3771.53136599047	1184.19995117188
3773.47308939509	1184.59997558594
3775.41429661421	1183.5
