-174.488245116115	1149.30004882813
-171.353866679816	1147.59997558594
-168.22051297009	1147
-165.088183560586	1147.59997558594
-161.956878025242	1146.09997558594
-158.826595938226	1150.59997558594
-155.697336873968	1148.5
-152.569100407157	1148.30004882813
-149.441886112741	1149.90002441406
-146.315693565896	1146.30004882813
-143.190522342091	1150
-140.066372017002	1149.90002441406
-136.943242166608	1148
-133.82113236709	1147.30004882813
-130.7000421949	1146.09997558594
-127.579971226752	1147.19995117188
-124.46091903959	1148.69995117188
-121.342885210617	1148.19995117188
-118.225869317289	1147.59997558594
-115.109870937295	1147
-111.994889648578	1150.69995117188
-108.880925029339	1145.80004882813
-105.767976658009	1148.59997558594
-102.656044113272	1146.5
-99.5451269740494	1147.69995117188
-96.4352248195329	1151
-93.3263372291173	1148.59997558594
-90.2184637824824	1148.19995117188
-87.1116040595153	1149.09997558594
-84.0057576403752	1148.19995117188
-80.9009241054446	1148.40002441406
-77.7971030353455	1149.5
-74.6942940109553	1147.80004882813
-71.5924966133822	1150.09997558594
-68.4917104239774	1147.19995117188
-65.3919350243307	1148.80004882813
-62.2931699962624	1149.09997558594
-59.1954149218515	1147.90002441406
-56.0986693833866	1149
-53.0029329634189	1147.90002441406
-49.908205244721	1151.30004882813
-46.8144858103075	1146.19995117188
-43.7217742434262	1149.09997558594
-40.6300701275667	1148.59997558594
-37.5393730464434	1148.5
-34.4496825840078	1147.69995117188
-31.3609983244403	1144.30004882813
-28.273319852166	1149.69995117188
-25.1866467518426	1146
-22.10097860834	1147.30004882813
-19.0163150067886	1147.69995117188
-15.9326555325185	1150.09997558594
-12.8499997711119	1146.90002441406
-9.76834730837485	1149.09997558594
-6.68769773034879	1148.59997558594
-3.60805062329064	1152.69995117188
-0.529405573692618	1166.19995117188
2.54823783170989	1189.30004882813
5.62488000599066	1171.90002441406
8.70052136196052	1158.5
11.7751623122237	1150.09997558594
14.8488032691459	1148.69995117188
17.9214446448865	1149.09997558594
20.9930868513505	1146
24.0637303002531	1149.59997558594
27.1333754030514	1147.80004882813
30.2020225710047	1148.40002441406
33.2696722151428	1145.09997558594
36.3363247462699	1147
39.401980574957	1147.69995117188
42.4666401115817	1147.40002441406
45.5303037662728	1149.09997558594
48.5929719489461	1148.59997558594
51.6546450693084	1147.80004882813
54.7153235368463	1147.69995117188
57.7750077608055	1146.59997558594
60.8336981502356	1148.30004882813
63.891395113966	1147.80004882813
66.9480990605899	1149.5
70.0038103985047	1150.09997558594
73.0585295358718	1150.90002441406
76.112256880665	1155.09997558594
79.1649928406108	1172.69995117188
82.21673782324	1221.69995117188
85.2674922358484	1299.40002441406
88.3172564855524	1348.80004882813
91.3660309792176	1356
94.4138161235146	1375.80004882813
97.4606123248875	1374.30004882813
100.506419989605	1390
103.551239523679	1370.80004882813
106.595071332926	1360.59997558594
109.637915822959	1373.5
112.679773399166	1368
115.720644466743	1373.80004882813
118.760529430661	1365
121.799428695683	1351.40002441406
124.83734266637	1349.69995117188
127.874271747074	1343.30004882813
130.910216341928	1343
133.945176854874	1338.59997558594
136.979153689627	1333.30004882813
140.012147249714	1327.5
143.044157938449	1334.30004882813
146.075186158938	1333.80004882813
149.105232314081	1327.5
152.134296806573	1326.30004882813
155.162380038908	1328.09997558594
158.189482413382	1317.5
161.215604332062	1310.69995117188
164.240746196836	1319.5
167.264908409388	1309.80004882813
170.288091371194	1308.5
173.310295483525	1312.40002441406
176.331521147454	1308
179.351768763859	1310.69995117188
182.3710387334	1311.59997558594
185.389331456545	1300.59997558594
188.40664733357	1305.59997558594
191.422986764561	1300.69995117188
194.438350149375	1302
197.452737887679	1298.90002441406
200.466150378974	1302.19995117188
203.478588022515	1301.59997558594
206.490051217389	1299.69995117188
209.500540362482	1296.69995117188
212.510055856486	1307.80004882813
215.51859809788	1311.90002441406
218.526167484984	1317.90002441406
221.532764415869	1307.69995117188
224.538389288469	1321.30004882813
227.543042500475	1328.90002441406
230.546724449419	1337.19995117188
233.549435532609	1343.19995117188
236.551176147184	1339.19995117188
239.551946690085	1344.40002441406
242.551747558066	1343.59997558594
245.55057914767	1342.69995117188
248.548441855258	1344.80004882813
251.545336077006	1352.5
254.541262208898	1354.69995117188
257.536220646712	1358.80004882813
260.53021178606	1361.19995117188
263.523236022356	1360.5
266.515293750805	1363.80004882813
269.506385366465	1362.09997558594
272.496511264158	1366.69995117188
275.485671838549	1379.59997558594
278.473867484101	1377.40002441406
281.461098595114	1379.69995117188
284.44736556567	1378.69995117188
287.432668789673	1396.90002441406
290.417008660864	1391.80004882813
293.400385572757	1400
296.382799918725	1419.80004882813
299.364252091929	1437.80004882813
302.344742485338	1461.19995117188
305.324271491768	1452.40002441406
308.302839503825	1421.40002441406
311.280446913945	1412.90002441406
314.257094114377	1406.40002441406
317.23278149719	1383.19995117188
320.207509454258	1384.09997558594
323.181278377283	1376.40002441406
326.154088657796	1362.40002441406
329.125940687134	1350.80004882813
332.096834856454	1350.30004882813
335.066771556737	1339.69995117188
338.035751178774	1338.59997558594
341.003774113189	1331.90002441406
343.97084075043	1335.80004882813
346.936951480745	1344.09997558594
349.902106694219	1327
352.866306780769	1335.59997558594
355.82955213011	1319.59997558594
358.791843131792	1314.59997558594
361.753180175185	1320.69995117188
364.713563649499	1314.90002441406
367.672993943731	1315.90002441406
370.631471446741	1310.30004882813
373.588996547206	1314.59997558594
376.545569633593	1306.5
379.501191094236	1299.40002441406
382.45586131727	1296.69995117188
385.409580690674	1298
388.362349602236	1291.69995117188
391.314168439577	1296.30004882813
394.265037590153	1295.19995117188
397.214957441235	1291.09997558594
400.16392837993	1293.69995117188
403.111950793165	1286.19995117188
406.059025067691	1289.09997558594
409.005151590118	1288.30004882813
411.950330746855	1280.40002441406
414.894562924143	1281.30004882813
417.837848508063	1289
420.780187884513	1285.59997558594
423.721581439244	1283.80004882813
426.662029557819	1293.69995117188
429.601532625628	1295
432.540091027909	1291.90002441406
435.477705149715	1297.19995117188
438.414375375956	1290.5
441.350102091341	1280.19995117188
444.284885680439	1270.30004882813
447.218726527646	1262.30004882813
450.151625017169	1256.40002441406
453.083581533085	1257.80004882813
456.014596459275	1246.90002441406
458.94467017946	1239.09997558594
461.87380307723	1240.69995117188
464.801995535963	1239.40002441406
467.72924793888	1249.30004882813
470.655560669072	1262.80004882813
473.580934109433	1251.5
476.505368642699	1260.90002441406
479.42886465145	1269.09997558594
482.351422518103	1275.5
485.273042624905	1282.69995117188
488.193725353949	1302.80004882813
491.113471087159	1313.5
494.032280206301	1332.80004882813
496.950153092974	1359.30004882813
499.867090128629	1404.09997558594
502.783091694533	1487.09997558594
505.698158171827	1601.90002441406
508.612289941456	1854.40002441406
511.525487384225	2538.10009765625
514.43775088078	4636.60009765625
517.3490808116	9580.599609375
520.259477557008	12664.5
523.168941497168	9287.7998046875
526.077473012083	5153.39990234375
528.98507248161	3216.89990234375
531.891740285434	2348.30004882813
534.797476803086	1909.5
537.702282413949	1698
540.606157497241	1564.80004882813
543.509102432012	1484.19995117188
546.411117597179	1419
549.312203371496	1383.5
552.212360133551	1353.40002441406
555.111588261787	1328
558.009888134493	1305.30004882813
560.907260129786	1296.90002441406
563.803704625648	1292.40002441406
566.699221999907	1272.09997558594
569.593812630219	1264.80004882813
572.487476894111	1265.69995117188
575.380215168932	1258.5
578.272027831898	1261.19995117188
581.162915260056	1250.59997558594
584.052877830319	1252.09997558594
586.941915919431	1241.5
589.830029903984	1242.5
592.717220160442	1245.90002441406
595.603487065095	1242.19995117188
598.488830994078	1243.30004882813
601.373252323396	1245.69995117188
604.256751428889	1252.19995117188
607.139328686265	1251.69995117188
610.020984471038	1254.5
612.90171915863	1264.19995117188
615.781533124278	1270
618.660426743072	1270.40002441406
621.538400389971	1268.40002441406
624.415454439761	1262.90002441406
627.291589267105	1252.19995117188
630.166805246513	1260.80004882813
633.041102752313	1247.59997558594
635.914482158742	1247.09997558594
638.786943839845	1252.19995117188
641.658488169547	1249.19995117188
644.529115521603	1252.80004882813
647.398826269641	1251.30004882813
650.267620787151	1246.69995117188
653.135499447438	1250.19995117188
656.002462623708	1258
658.868510688984	1254.59997558594
661.733644016172	1253.40002441406
664.59786297802	1255.69995117188
667.461167947139	1255.69995117188
670.32355929598	1254.09997558594
673.185037396862	1254.19995117188
676.045602621965	1253.69995117188
678.905255343306	1245.19995117188
681.763995932795	1244.09997558594
684.621824762164	1239.19995117188
687.47874220302	1238.59997558594
690.334748626818	1225.69995117188
693.189844404876	1231.30004882813
696.044029908375	1229.5
698.897305508341	1222.59997558594
701.749671575677	1222.09997558594
704.601128481138	1217
707.451676595324	1216.80004882813
710.301316288718	1210.09997558594
713.150047931639	1213.80004882813
715.997871894292	1216.90002441406
718.844788546713	1210.30004882813
721.690798258824	1210.80004882813
724.535901400393	1211.30004882813
727.380098341057	1216.30004882813
730.223389450309	1212.40002441406
733.065775097502	1217.19995117188
735.907255651861	1215.59997558594
738.747831482461	1211.09997558594
741.587502958238	1218.09997558594
744.426270448005	1212.69995117188
747.264134320431	1215.90002441406
750.101094944034	1216.80004882813
752.937152687221	1212.09997558594
755.772307918238	1220.40002441406
758.606561005211	1218.09997558594
761.439912316121	1224.59997558594
764.272362218816	1216.59997558594
767.103911081018	1218.30004882813
769.934559270291	1215.69995117188
772.764307154079	1225.59997558594
775.593155099695	1226.69995117188
778.42110347431	1222.59997558594
781.248152644956	1226.40002441406
784.074302978539	1223.90002441406
786.899554841832	1227
789.723908601474	1223.30004882813
792.547364623949	1229.80004882813
795.369923275648	1233.80004882813
798.191584922798	1235.90002441406
801.012349931499	1234.40002441406
803.832218667714	1230.19995117188
806.651191497303	1238.09997558594
809.469268785944	1243.5
812.286450899232	1245.09997558594
815.1027382026	1239.19995117188
817.918131061357	1235.69995117188
820.73262984068	1244
823.546234905624	1247.09997558594
826.358946621095	1250.09997558594
829.170765351889	1240.09997558594
831.981691462663	1240.90002441406
834.791725317936	1237.30004882813
837.600867282103	1241.30004882813
840.409117719429	1235.30004882813
843.216476994053	1235.30004882813
846.022945469989	1228.90002441406
848.828523511098	1235.40002441406
851.633211481134	1239.90002441406
854.437009743721	1235.30004882813
857.239918662353	1238.69995117188
860.041938600383	1233.30004882813
862.843069921057	1235.69995117188
865.643312987472	1236.90002441406
868.442668162604	1234.30004882813
871.241135809316	1237.69995117188
874.038716290324	1235.90002441406
876.835409968233	1243
879.63121720551	1240.19995117188
882.426138364494	1241.40002441406
885.22017380741	1240.09997558594
888.013323896339	1247
890.805588993253	1238.19995117188
893.596969459993	1241.80004882813
896.387465658265	1236.69995117188
899.177077949666	1244.69995117188
901.965806695649	1237.40002441406
904.75365225756	1243.90002441406
907.540614996601	1240.30004882813
910.326695273873	1247.19995117188
913.111893450328	1241.59997558594
915.896209886813	1250.90002441406
918.679644944044	1258.09997558594
921.462198982604	1265.59997558594
924.243872362968	1292.80004882813
927.02466544548	1323.5
929.804578590358	1380.19995117188
932.583612157696	1437.40002441406
935.361766507473	1504.30004882813
938.13904199954	1561.09997558594
940.915438993633	1596.19995117188
943.690957849354	1604.40002441406
946.465598926189	1592.30004882813
949.239362583496	1621.30004882813
952.012249180518	1609
954.784259076376	1598.90002441406
957.555392630071	1615.69995117188
960.325650200475	1617.30004882813
963.09503214635	1602.80004882813
965.863538826323	1619.40002441406
968.631170598912	1614.90002441406
971.397927822515	1609
974.163810855393	1612.09997558594
976.928820055712	1642.40002441406
979.692955781498	1625
982.456218390671	1613.90002441406
985.218608241021	1557.90002441406
987.980125690221	1521.19995117188
990.740771095826	1477.80004882813
993.500544815275	1411.80004882813
996.259447205875	1386.30004882813
999.017478624842	1361
1001.77463942924	1333.09997558594
1004.53092997605	1312.19995117188
1007.28635062209	1311.40002441406
1010.0409017241	1297.40002441406
1012.79458363868	1282.80004882813
1015.54739672233	1275.30004882813
1018.29934133142	1268.19995117188
1021.05041782219	1257.69995117188
1023.8006265508	1247.69995117188
1026.54996787325	1239.69995117188
1029.29844214545	1228.09997558594
1032.0460497232	1226.30004882813
1034.79279096215	1215.30004882813
1037.53866621786	1210.5
1040.28367584578	1203
1043.02782020123	1198.69995117188
1045.7710996394	1195.59997558594
1048.51351451539	1190.30004882813
1051.25506518417	1190.40002441406
1053.99575200061	1193.19995117188
1056.73557531945	1197
1059.4745354953	1190.40002441406
1062.2126328827	1193.40002441406
1064.94986783605	1195.59997558594
1067.68624070961	1188.59997558594
1070.42175185757	1192.19995117188
1073.15640163398	1194
1075.89019039278	1192.5
1078.6231184878	1189.90002441406
1081.35518627276	1191.59997558594
1084.08639410125	1190.59997558594
1086.81674232676	1190.19995117188
1089.54623130267	1187.80004882813
1092.27486138224	1190.09997558594
1095.00263291861	1194.5
1097.72954626482	1190.80004882813
1100.45560177378	1193.5
1103.18079979831	1192.40002441406
1105.90514069112	1193.30004882813
1108.62862480477	1190.19995117188
1111.35125249175	1192.40002441406
1114.07302410441	1188.30004882813
1116.793939995	1184.09997558594
1119.51400051566	1191.40002441406
1122.23320601841	1186.80004882813
1124.95155685517	1187.5
1127.66905337774	1187.80004882813
1130.38569593782	1188.69995117188
1133.10148488697	1185.19995117188
1135.81642057667	1186.5
1138.53050335829	1187.5
1141.24373358306	1184
1143.95611160214	1184.30004882813
1146.66763776654	1184.09997558594
1149.37831242718	1185.19995117188
1152.08813593487	1180.40002441406
1154.7971086403	1188.09997558594
1157.50523089408	1183.80004882813
1160.21250304667	1181
1162.91892544844	1185.09997558594
1165.62449844965	1179
1168.32922240045	1181.59997558594
1171.0330976509	1182.30004882813
1173.73612455091	1182
1176.43830345031	1181.40002441406
1179.13963469882	1187.40002441406
1181.84011864604	1183.80004882813
1184.53975564147	1183.30004882813
1187.23854603451	1179.90002441406
1189.93649017442	1186.69995117188
1192.63358841039	1182.5
1195.32984109149	1183.59997558594
1198.02524856667	1180.90002441406
1200.71981118478	1182.59997558594
1203.41352929457	1183.69995117188
1206.10640324467	1184.80004882813
1208.79843338361	1178.69995117188
1211.48962005981	1186.09997558594
1214.17996362159	1182.80004882813
1216.86946441716	1182.80004882813
1219.55812279461	1188
1222.24593910194	1190.59997558594
1224.93291368704	1182.59997558594
1227.61904689769	1182
1230.30433908157	1184.59997558594
1232.98879058625	1185.69995117188
1235.67240175918	1180.90002441406
1238.35517294773	1185.09997558594
1241.03710449915	1185.19995117188
1243.71819676058	1180.30004882813
1246.39845007907	1185.40002441406
1249.07786480155	1185.30004882813
1251.75644127485	1185.90002441406
1254.43417984571	1182.69995117188
1257.11108086072	1186.69995117188
1259.78714466643	1180.59997558594
1262.46237160921	1185.59997558594
1265.1367620354	1184.09997558594
1267.81031629118	1186.30004882813
1270.48303472266	1187.80004882813
1273.15491767583	1181.90002441406
1275.82596549657	1183.80004882813
1278.49617853067	1182.69995117188
1281.16555712381	1184.09997558594
1283.83410162156	1184.40002441406
1286.50181236939	1185.80004882813
1289.16868971269	1183.59997558594
1291.8347339967	1187.80004882813
1294.49994556659	1188.69995117188
1297.16432476743	1186.90002441406
1299.82787194415	1186.90002441406
1302.49058744163	1187
1305.15247160459	1186.59997558594
1307.81352477769	1185.90002441406
1310.47374730548	1185.40002441406
1313.1331395324	1184.5
1315.79170180277	1188.5
1318.44943446083	1183.80004882813
1321.10633785073	1185.09997558594
1323.76241231648	1188.30004882813
1326.41765820202	1189.19995117188
1329.07207585117	1188.80004882813
1331.72566560766	1190.5
1334.3784278151	1192.5
1337.03036281703	1194
1339.68147095686	1192.19995117188
1342.33175257789	1192.19995117188
1344.98120802335	1190.59997558594
1347.62983763636	1196.19995117188
1350.27764175994	1192
1352.92462073697	1190.40002441406
1355.57077491028	1186.09997558594
1358.21610462259	1185
1360.86061021649	1191.19995117188
1363.50429203449	1186.69995117188
1366.14715041901	1192.30004882813
1368.78918571234	1188.59997558594
1371.4303982567	1185.59997558594
1374.07078839419	1187.59997558594
1376.71035646681	1190.69995117188
1379.34910281647	1186.40002441406
1381.98702778498	1188.80004882813
1384.62413171402	1185.30004882813
1387.26041494523	1192.69995117188
1389.89587782008	1186.40002441406
1392.53052068001	1185.69995117188
1395.16434386629	1187.40002441406
1397.79734772015	1186
1400.42953258269	1188
1403.0608987949	1185.69995117188
1405.69144669771	1189.40002441406
1408.32117663193	1184.40002441406
1410.95008893825	1188.90002441406
1413.57818395728	1187.19995117188
1416.20546202954	1191.59997558594
1418.83192349543	1184.5
1421.45756869528	1184.80004882813
1424.08239796929	1185.80004882813
1426.70641165757	1183.30004882813
1429.32961010016	1187.40002441406
1431.95199363695	1185.09997558594
1434.57356260778	1187.40002441406
1437.19431735237	1188.90002441406
1439.81425821033	1192.40002441406
1442.43338552118	1189.40002441406
1445.05169962437	1187.5
1447.66920085921	1186.69995117188
1450.28588956493	1187.59997558594
1452.90176608067	1190.40002441406
1455.51683074547	1186.19995117188
1458.13108389825	1188.40002441406
1460.74452587786	1183.40002441406
1463.35715702303	1186.19995117188
1465.96897767243	1191.19995117188
1468.57998816457	1185.30004882813
1471.19018883794	1187.90002441406
1473.79958003086	1186.80004882813
1476.4081620816	1187.19995117188
1479.01593532831	1181.40002441406
1481.62290010905	1180.09997558594
1484.22905676179	1183.69995117188
1486.83440562438	1183.30004882813
1489.43894703461	1182.40002441406
1492.04268133016	1183.40002441406
1494.64560884857	1182.19995117188
1497.24772992735	1182.30004882813
1499.84904490388	1186.30004882813
1502.44955411543	1185.09997558594
1505.0492578992	1183.19995117188
1507.64815659229	1187.30004882813
1510.24625053168	1187.30004882813
1512.84354005429	1186.90002441406
1515.44002549691	1184.5
1518.03570719625	1187.19995117188
1520.63058548894	1185.90002441406
1523.22466071147	1193.40002441406
1525.81793320028	1183.5
1528.41040329169	1188
1531.00207132192	1191.59997558594
1533.59293762712	1187.19995117188
1536.18300254332	1192
1538.77226640645	1186.59997558594
1541.36072955237	1193.80004882813
1543.94839231684	1193.69995117188
1546.53525503548	1197
1549.12131804389	1197.19995117188
1551.70658167752	1204.40002441406
1554.29104627173	1202
1556.87471216181	1205.40002441406
1559.45757968292	1217.40002441406
1562.03964917017	1224.90002441406
1564.62092095853	1237.09997558594
1567.2013953829	1255.80004882813
1569.78107277808	1280.69995117188
1572.35995347877	1314.69995117188
1574.93803781959	1367
1577.51532613504	1441.80004882813
1580.09181875956	1540.90002441406
1582.66751602746	1606.09997558594
1585.24241827297	1592.19995117188
1587.81652583024	1509.90002441406
1590.3898390333	1437.09997558594
1592.96235821611	1353.69995117188
1595.53408371251	1300.69995117188
1598.10501585628	1267.69995117188
1600.67515498106	1242.40002441406
1603.24450142043	1230
1605.81305550788	1216.09997558594
1608.38081757677	1216.40002441406
1610.9477879604	1203.80004882813
1613.51396699198	1203.90002441406
1616.07935500458	1195.59997558594
1618.64395233122	1197.5
1621.20775930483	1196.40002441406
1623.7707762582	1196.40002441406
1626.33300352408	1196.5
1628.89444143508	1190.69995117188
1631.45509032376	1186.40002441406
1634.01495052255	1187.30004882813
1636.5740223638	1186.90002441406
1639.13230617978	1187.09997558594
1641.68980230264	1188.90002441406
1644.24651106446	1182.80004882813
1646.80243279721	1180.5
1649.35756783278	1185.30004882813
1651.91191650296	1178.40002441406
1654.46547913944	1185.90002441406
1657.01825607383	1179.80004882813
1659.57024763764	1182.80004882813
1662.12145416229	1184.80004882813
1664.6718759791	1175.90002441406
1667.2215134193	1176.30004882813
1669.77036681404	1176.80004882813
1672.31843649435	1178.59997558594
1674.8657227912	1181.19995117188
1677.41222603543	1180.40002441406
1679.95794655782	1180.90002441406
1682.50288468904	1178.30004882813
1685.04704075968	1172.90002441406
1687.59041510022	1181.19995117188
1690.13300804106	1182.90002441406
1692.67481991249	1177.40002441406
1695.21585104474	1176.80004882813
1697.75610176791	1178.80004882813
1700.29557241205	1174.80004882813
1702.83426330707	1178.09997558594
1705.37217478282	1176.30004882813
1707.90930716905	1178.19995117188
1710.44566079541	1178.19995117188
1712.98123599146	1177
1715.51603308669	1178.40002441406
1718.05005241045	1177.90002441406
1720.58329429205	1177.59997558594
1723.11575906067	1176.5
1725.64744704542	1177.30004882813
1728.17835857532	1175.59997558594
1730.70849397927	1176.40002441406
1733.2378535861	1177.09997558594
1735.76643772453	1173.80004882813
1738.29424672323	1173.59997558594
1740.82128091074	1173.5
1743.3475406155	1169.59997558594
1745.87302616589	1175.69995117188
1748.39773789019	1174.59997558594
1750.92167611656	1179.09997558594
1753.44484117311	1176.69995117188
1755.96723338783	1175.19995117188
1758.48885308862	1173.69995117188
1761.00970060331	1174
1763.52977625961	1173.19995117188
1766.04908038514	1174.69995117188
1768.56761330746	1177.30004882813
1771.08537535401	1175.90002441406
1773.60236685214	1176.40002441406
1776.11858812912	1174.59997558594
1778.63403951211	1172.90002441406
1781.14872132821	1176.69995117188
1783.6626339044	1173.69995117188
1786.17577756757	1176.19995117188
1788.68815264454	1175.09997558594
1791.199759462	1175.30004882813
1793.7105983466	1176.5
1796.22066962486	1173
1798.72997362322	1177.40002441406
1801.23851066803	1172.69995117188
1803.74628108554	1174.59997558594
1806.25328520193	1175.69995117188
1808.75952334326	1174.09997558594
1811.2649958355	1178.5
1813.76970300458	1176.09997558594
1816.27364517628	1175.19995117188
1818.77682267629	1176.69995117188
1821.27923583026	1177.90002441406
1823.78088496369	1175.40002441406
1826.28177040204	1175.69995117188
1828.78189247064	1176.5
1831.28125149473	1175
1833.77984779949	1172.09997558594
1836.27768170998	1173.30004882813
1838.77475355119	1177.09997558594
1841.271063648	1176.40002441406
1843.76661232521	1177.40002441406
1846.26139990751	1175.5
1848.75542671954	1179.30004882813
1851.2486930858	1179.19995117188
1853.74119933074	1181.59997558594
1856.23294577869	1182.80004882813
1858.72393275391	1183.69995117188
1861.21416058054	1179.80004882813
1863.70362958267	1176.40002441406
1866.19234008426	1178.80004882813
1868.6802924092	1177.5
1871.16748688129	1181.80004882813
1873.65392382424	1179.69995117188
1876.13960356164	1177.40002441406
1878.62452641704	1176
1881.10869271384	1175.80004882813
1883.59210277541	1173.69995117188
1886.07475692498	1181.5
1888.55665548571	1174.09997558594
1891.03779878067	1175.69995117188
1893.51818713284	1176.69995117188
1895.99782086509	1173.09997558594
1898.47670030024	1175.09997558594
1900.95482576096	1178.5
1903.43219756989	1173.59997558594
1905.90881604954	1175.19995117188
1908.38468152235	1175.90002441406
1910.85979431064	1173.90002441406
1913.33415473668	1172.69995117188
1915.80776312261	1173.90002441406
1918.28061979051	1173.80004882813
1920.75272506234	1173.69995117188
1923.22407926001	1175.69995117188
1925.69468270529	1174.19995117188
1928.16453571989	1174.59997558594
1930.63363862544	1173.69995117188
1933.10199174344	1176.5
1935.56959539533	1175
1938.03644990244	1180.09997558594
1940.50255558603	1175.19995117188
1942.96791276726	1175.19995117188
1945.43252176718	1172.30004882813
1947.8963829068	1175.5
1950.35949650697	1172.40002441406
1952.8218628885	1178.30004882813
1955.2834823721	1176.30004882813
1957.74435527836	1173.30004882813
1960.20448192784	1175.59997558594
1962.66386264093	1175.5
1965.12249773799	1174.5
1967.58038753927	1174.40002441406
1970.03753236493	1176.30004882813
1972.49393253504	1178.69995117188
1974.94958836957	1176.59997558594
1977.4045001884	1174.90002441406
1979.85866831133	1174.5
1982.31209305807	1176.90002441406
1984.76477474823	1175
1987.21671370133	1177.5
1989.6679102368	1176.69995117188
1992.11836467399	1176.80004882813
1994.56807733213	1172.5
1997.0170485304	1174.09997558594
1999.46527858786	1176.59997558594
2001.91276782348	1177.30004882813
2004.35951655615	1176.30004882813
2006.80552510467	1176.09997558594
2009.25079378774	1173.30004882813
2011.69532292397	1180.59997558594
2014.13911283188	1172.90002441406
2016.58216382991	1174.30004882813
2019.02447623639	1174.69995117188
2021.46605036956	1178.59997558594
2023.90688654761	1172.59997558594
2026.34698508858	1175.19995117188
2028.78634631045	1172.09997558594
2031.22497053111	1182.69995117188
2033.66285806835	1177.19995117188
2036.10000923987	1174.69995117188
2038.53642436328	1173
2040.97210375611	1179.09997558594
2043.40704773578	1170.40002441406
2045.84125661964	1178.40002441406
2048.27473072492	1175.5
2050.70747036878	1177.30004882813
2053.13947586829	1174.90002441406
2055.57074754041	1175.19995117188
2058.00128570205	1169.5
2060.43109066998	1173.80004882813
2062.8601627609	1174.59997558594
2065.28850229143	1176.69995117188
2067.71610957807	1173.69995117188
2070.14298493726	1174.80004882813
2072.56912868532	1175.40002441406
2074.99454113851	1170.30004882813
2077.41922261297	1173.90002441406
2079.84317342476	1172.90002441406
2082.26639388986	1175.90002441406
2084.68888432414	1173.5
2087.1106450434	1174.5
2089.53167636331	1174.59997558594
2091.95197859949	1175.40002441406
2094.37155206745	1176.40002441406
2096.79039708261	1173.40002441406
2099.20851396029	1174.5
2101.62590301575	1171.5
2104.04256456411	1171.59997558594
2106.45849892045	1173.30004882813
2108.87370639971	1171.69995117188
2111.28818731677	1170.59997558594
2113.70194198641	1172.40002441406
2116.11497072333	1170.5
2118.52727384211	1175.59997558594
2120.93885165726	1177
2123.34970448321	1175.59997558594
2125.75983263425	1173
2128.16923642463	1172.69995117188
2130.57791616848	1173.80004882813
2132.98587217985	1173.5
2135.3931047727	1170.09997558594
2137.79961426089	1177.40002441406
2140.20540095818	1173.80004882813
2142.61046517826	1173.19995117188
2145.01480723472	1175.90002441406
2147.41842744104	1174.90002441406
2149.82132611063	1172.5
2152.22350355681	1173.19995117188
2154.62496009279	1172.80004882813
2157.0256960317	1174.5
2159.42571168658	1179.09997558594
2161.82500737036	1173.90002441406
2164.22358339589	1173
2166.62144007595	1172
2169.01857772318	1171.5
2171.41499665018	1170.59997558594
2173.81069716942	1173.69995117188
2176.20567959329	1172.90002441406
2178.59994423409	1171.19995117188
2180.99349140402	1171.59997558594
2183.38632141519	1173.5
2185.77843457964	1175.5
2188.16983120927	1172.90002441406
2190.56051161594	1174
2192.95047611139	1174.69995117188
2195.33972500725	1172.19995117188
2197.72825861511	1176.5
2200.11607724641	1175.19995117188
2202.50318121254	1173.69995117188
2204.88957082477	1169
2207.27524639429	1174.90002441406
2209.6602082322	1176.80004882813
2212.0444566495	1175.59997558594
2214.4279919571	1176.30004882813
2216.81081446582	1172.90002441406
2219.19292448638	1175.80004882813
2221.57432232942	1174.19995117188
2223.95500830547	1174.19995117188
2226.33498272498	1173.19995117188
2228.7142458983	1171.5
2231.09279813569	1175.09997558594
2233.47063974732	1170.69995117188
2235.84777104327	1172.69995117188
2238.2241923335	1174.30004882813
2240.59990392792	1171.09997558594
2242.97490613632	1176.90002441406
2245.34919926839	1170.19995117188
2247.72278363376	1176.19995117188
2250.09565954192	1173
2252.46782730231	1173.19995117188
2254.83928722425	1171.80004882813
2257.21003961698	1174.19995117188
2259.58008478963	1169.19995117188
2261.94942305127	1174.80004882813
2264.31805471084	1170.69995117188
2266.68598007721	1174.5
2269.05319945914	1174.59997558594
2271.4197131653	1178.80004882813
2273.78552150427	1172.09997558594
2276.15062478456	1175.59997558594
2278.51502331454	1175.19995117188
2280.87871740252	1167.40002441406
2283.24170735671	1174.30004882813
2285.60399348521	1172.90002441406
2287.96557609605	1172.5
2290.32645549714	1175.59997558594
2292.68663199633	1173.5
2295.04610590133	1174.5
2297.40487751981	1174.80004882813
2299.76294715931	1173.19995117188
2302.12031512727	1171.90002441406
2304.47698173107	1177.30004882813
2306.83294727796	1173.59997558594
2309.18821207512	1175.30004882813
2311.54277642963	1177.80004882813
2313.89664064847	1174.59997558594
2316.24980503852	1175.19995117188
2318.6022699066	1174
2320.95403555938	1172.09997558594
2323.30510230349	1170.80004882813
2325.65547044542	1179.30004882813
2328.0051402916	1173.90002441406
2330.35411214835	1180.5
2332.7023863219	1171.80004882813
2335.04996311837	1177.09997558594
2337.39684284382	1175.69995117188
2339.74302580418	1175.30004882813
2342.08851230529	1173.69995117188
2344.43330265291	1175.09997558594
2346.7773971527	1171.90002441406
2349.12079611023	1173
2351.46349983096	1176.69995117188
2353.80550862026	1175.69995117188
2356.14682278342	1171.19995117188
2358.48744262562	1176.09997558594
2360.82736845194	1176
2363.16660056738	1172.40002441406
2365.50513927683	1176.40002441406
2367.8429848851	1174.80004882813
2370.1801376969	1177.59997558594
2372.51659801683	1175.80004882813
2374.85236614941	1176.69995117188
2377.18744239906	1173.09997558594
2379.52182707011	1173.69995117188
2381.85552046679	1176.69995117188
2384.18852289322	1175.40002441406
2386.52083465345	1174
2388.85245605142	1169.80004882813
2391.18338739097	1179.19995117188
2393.51362897585	1173.5
2395.84318110973	1172.90002441406
2398.17204409615	1174.69995117188
2400.50021823858	1174.90002441406
2402.82770384038	1176
2405.15450120483	1175.09997558594
2407.48061063509	1172.30004882813
2409.80603243426	1174.19995117188
2412.13076690529	1174.80004882813
2414.4548143511	1176.19995117188
2416.77817507445	1174.90002441406
2419.10084937804	1176.59997558594
2421.42283756447	1175.09997558594
2423.74413993625	1177
2426.06475679575	1182.09997558594
2428.38468844531	1182.09997558594
2430.70393518711	1182.69995117188
2433.02249732329	1181.69995117188
2435.34037515584	1184.09997558594
2437.65756898669	1190.40002441406
2439.97407911767	1187.90002441406
2442.28990585049	1196.5
2444.60504948679	1197.09997558594
2446.91951032808	1200.30004882813
2449.23328867581	1208
2451.54638483132	1209.59997558594
2453.85879909585	1206.09997558594
2456.17053177052	1211.09997558594
2458.48158315639	1207.09997558594
2460.79195355441	1204.30004882813
2463.10164326542	1198.5
2465.41065259017	1198.69995117188
2467.71898182932	1198.69995117188
2470.02663128344	1191.19995117188
2472.33360125296	1192.19995117188
2474.63989203825	1195
2476.94550393958	1191.09997558594
2479.25043725712	1191.59997558594
2481.55469229093	1189.80004882813
2483.85826934098	1190.59997558594
2486.16116870713	1187.19995117188
2488.46339068916	1186.69995117188
2490.76493558676	1192.59997558594
2493.06580369949	1185
2495.36599532684	1183
2497.66551076817	1182.59997558594
2499.96435032278	1181.90002441406
2502.26251428984	1184.19995117188
2504.56000296845	1183.19995117188
2506.85681665757	1179.59997558594
2509.15295565612	1182.5
2511.44842026287	1180
2513.74321077651	1182
2516.03732749563	1182.90002441406
2518.33077071873	1179.30004882813
2520.62354074419	1181
2522.91563787031	1180.90002441406
2525.20706239528	1183.09997558594
2527.49781461721	1179.80004882813
2529.78789483408	1179
2532.0773033438	1182.5
2534.36604044416	1179.5
2536.65410643286	1179.30004882813
2538.9415016075	1180.59997558594
2541.22822626558	1180.90002441406
2543.51428070449	1177.80004882813
2545.79966522154	1180.19995117188
2548.08438011393	1175.69995117188
2550.36842567876	1181.19995117188
2552.65180221302	1172.19995117188
2554.93451001363	1181
2557.21654937738	1182
2559.49792060096	1181.80004882813
2561.77862398098	1184.80004882813
2564.05865981395	1180.90002441406
2566.33802839626	1179.09997558594
2568.61673002421	1177.80004882813
2570.89476499399	1180.80004882813
2573.17213360172	1178.90002441406
2575.44883614338	1179.40002441406
2577.72487291489	1180.30004882813
2580.00024421203	1183.40002441406
2582.27495033048	1183.69995117188
2584.54899156587	1181.59997558594
2586.82236821368	1182.09997558594
2589.0950805693	1182.59997558594
2591.36712892802	1180.5
2593.63851358505	1187.30004882813
2595.90923483547	1183.59997558594
2598.17929297426	1180.09997558594
2600.44868829631	1184.69995117188
2602.71742109642	1192.5
2604.98549166927	1190.59997558594
2607.25290030944	1190.19995117188
2609.51964731142	1193.09997558594
2611.78573296958	1191.90002441406
2614.05115757822	1189.40002441406
2616.31592143149	1196.30004882813
2618.58002482349	1193.80004882813
2620.84346804817	1199.30004882813
2623.10625139942	1204.80004882813
2625.36837517101	1213.19995117188
2627.6298396566	1214.69995117188
2629.89064514976	1215.09997558594
2632.15079194395	1220.59997558594
2634.41028033254	1238.5
2636.66911060878	1237.19995117188
2638.92728306582	1250.90002441406
2641.18479799672	1263.59997558594
2643.44165569444	1280.69995117188
2645.69785645182	1297
2647.95340056162	1319.90002441406
2650.20828831645	1350.19995117188
2652.46252000888	1396.19995117188
2654.71609593134	1442.09997558594
2656.96901637616	1489.5
2659.22128163557	1557.09997558594
2661.47289200171	1623.59997558594
2663.72384776659	1676.5
2665.97414922213	1742.30004882813
2668.22379666017	1800.59997558594
2670.4727903724	1850.40002441406
2672.72113065044	1873.69995117188
2674.9688177858	1886.90002441406
2677.21585206988	1868.09997558594
2679.46223379399	1831.90002441406
2681.70796324931	1797.59997558594
2683.95304072694	1723.40002441406
2686.19746651787	1674.30004882813
2688.44124091298	1595.90002441406
2690.68436420305	1539.90002441406
2692.92683667876	1495.09997558594
2695.16865863068	1440.09997558594
2697.40983034928	1394.40002441406
2699.65035212492	1354
2701.89022424785	1331.09997558594
2704.12944700824	1300.09997558594
2706.36802069612	1291.19995117188
2708.60594560146	1254.80004882813
2710.84322201407	1254.69995117188
2713.0798502237	1244.5
2715.31583051998	1231.90002441406
2717.55116319244	1225
2719.78584853048	1221.5
2722.01988682344	1214.19995117188
2724.2532783605	1211
2726.48602343079	1200.59997558594
2728.71812232329	1208.09997558594
2730.9495753269	1197.59997558594
2733.1803827304	1196.19995117188
2735.4105448225	1199.90002441406
2737.64006189173	1196.30004882813
2739.86893422659	1193.5
2742.09716211544	1189.40002441406
2744.32474584653	1187.80004882813
2746.55168570802	1185.40002441406
2748.77798198795	1186.90002441406
2751.00363497426	1185.5
2753.22864495479	1189.19995117188
2755.45301221725	1185.09997558594
2757.67673704928	1181.69995117188
2759.89981973839	1182
2762.12226057198	1186.80004882813
2764.34405983734	1181.69995117188
2766.56521782169	1180.40002441406
2768.7857348121	1180.30004882813
2771.00561109555	1179.59997558594
2773.22484695892	1179.59997558594
2775.44344268897	1175.90002441406
2777.66139857236	1176.40002441406
2779.87871489564	1179.69995117188
2782.09539194526	1177.69995117188
2784.31143000754	1173.59997558594
2786.52682936873	1178.5
2788.74159031494	1178.30004882813
2790.95571313218	1179.09997558594
2793.16919810637	1176.5
2795.38204552329	1173.80004882813
2797.59425566864	1180.40002441406
2799.805828828	1177.80004882813
2802.01676528685	1173.90002441406
2804.22706533056	1174.69995117188
2806.43672924436	1178.80004882813
2808.64575731343	1171.30004882813
2810.85414982279	1170.40002441406
2813.06190705738	1174.90002441406
2815.26902930203	1175
2817.47551684145	1173.30004882813
2819.68136996024	1173.09997558594
2821.88658894291	1177.30004882813
2824.09117407383	1174.80004882813
2826.29512563729	1170
2828.49844391747	1170.90002441406
2830.70112919842	1173.5
2832.90318176409	1170.80004882813
2835.10460189833	1174.40002441406
2837.30538988487	1170.90002441406
2839.50554600732	1177.30004882813
2841.70507054922	1171.40002441406
2843.90396379395	1173.40002441406
2846.10222602482	1169.5
2848.29985752501	1173.59997558594
2850.49685857759	1172
2852.69322946553	1170.5
2854.88897047169	1174.30004882813
2857.08408187879	1172.30004882813
2859.27856396949	1171.30004882813
2861.4724170263	1169
2863.66564133164	1172.40002441406
2865.85823716781	1175.59997558594
2868.050204817	1172.19995117188
2870.2415445613	1169.69995117188
2872.43225668266	1173.5
2874.62234146295	1171.19995117188
2876.81179918393	1170.80004882813
2879.00063012722	1172.69995117188
2881.18883457435	1170.80004882813
2883.37641280674	1171.40002441406
2885.56336510569	1173.09997558594
2887.7496917524	1167.19995117188
2889.93539302793	1170.30004882813
2892.12046921326	1168.90002441406
2894.30492058926	1176.19995117188
2896.48874743666	1171.69995117188
2898.67195003609	1171.19995117188
2900.85452866809	1168.59997558594
2903.03648361305	1172.5
2905.21781515128	1172.30004882813
2907.39852356295	1168.69995117188
2909.57860912814	1174.19995117188
2911.75807212682	1169.80004882813
2913.93691283883	1167.30004882813
2916.1151315439	1171.09997558594
2918.29272852166	1171.40002441406
2920.46970405161	1169.90002441406
2922.64605841316	1168.80004882813
2924.82179188558	1170
2926.99690474805	1168.69995117188
2929.17139727962	1169.80004882813
2931.34526975924	1168.80004882813
2933.51852246574	1170.59997558594
2935.69115567784	1171.09997558594
2937.86316967414	1167
2940.03456473313	1170.5
2942.20534113318	1170.19995117188
2944.37549915256	1169.80004882813
2946.54503906942	1169.5
2948.71396116179	1170.80004882813
2950.8822657076	1172.59997558594
2953.04995298465	1165.30004882813
2955.21702327062	1170.19995117188
2957.38347684312	1165.80004882813
2959.54931397958	1174.40002441406
2961.71453495737	1167.09997558594
2963.87914005372	1167.09997558594
2966.04312954574	1170.19995117188
2968.20650371045	1165
2970.36926282472	1164.90002441406
2972.53140716535	1170
2974.69293700897	1168.69995117188
2976.85385263216	1165.59997558594
2979.01415431133	1169.69995117188
2981.17384232278	1166.69995117188
2983.33291694274	1168.90002441406
2985.49137844726	1170.19995117188
2987.64922711234	1165.09997558594
2989.8064632138	1170.40002441406
2991.9630870274	1167.59997558594
2994.11909882875	1168.5
2996.27449889334	1169.69995117188
2998.42928749659	1165.69995117188
3000.58346491374	1171.80004882813
3002.73703141997	1170
3004.8899872903	1171.09997558594
3007.04233279965	1168.30004882813
3009.19406822284	1166.5
3011.34519383455	1165.19995117188
3013.49570990936	1165.19995117188
3015.64561672172	1165.5
3017.79491454597	1165.80004882813
3019.94360365632	1164.59997558594
3022.09168432689	1164.69995117188
3024.23915683165	1166.90002441406
3026.38602144448	1168
3028.53227843913	1165.59997558594
3030.67792808923	1167.5
3032.82297066831	1165.69995117188
3034.96740644975	1169
3037.11123570684	1165.59997558594
3039.25445871273	1163.40002441406
3041.39707574049	1169
3043.53908706303	1164
3045.68049295316	1167.19995117188
3047.82129368358	1164.59997558594
3049.96148952684	1167
3052.1010807554	1163.30004882813
3054.24006764161	1166.19995117188
3056.37845045767	1162.19995117188
3058.51622947568	1165.09997558594
3060.65340496763	1168.19995117188
3062.78997720535	1163.80004882813
3064.92594646061	1166.19995117188
3067.06131300501	1166.40002441406
3069.19607711007	1167.5
3071.33023904715	1166.09997558594
3073.46379908752	1168
3075.59675750233	1167.30004882813
3077.7291145626	1163.30004882813
3079.86087053922	1166.80004882813
3081.99202570299	1164.40002441406
3084.12258032456	1167.90002441406
3086.25253467448	1165.59997558594
3088.38188902317	1166.19995117188
3090.51064364093	1162.69995117188
3092.63879879794	1167.5
3094.76635476428	1165
3096.89331180986	1164.69995117188
3099.01967020452	1167.80004882813
3101.14543021796	1163
3103.27059211975	1167.19995117188
3105.39515617934	1164.59997558594
3107.51912266608	1163.69995117188
3109.64249184919	1166.40002441406
3111.76526399774	1166.5
3113.88743938072	1166.80004882813
3116.00901826698	1165.19995117188
3118.13000092523	1166.80004882813
3120.2503876241	1165.59997558594
3122.37017863206	1165.5
3124.48937421748	1165.5
3126.6079746486	1162.30004882813
3128.72598019354	1165.59997558594
3130.84339112029	1164.30004882813
3132.96020769673	1165.40002441406
3135.07643019061	1164.90002441406
3137.19205886957	1164.80004882813
3139.3070940011	1165.80004882813
3141.42153585259	1164.90002441406
3143.5353846913	1164.69995117188
3145.64864078438	1164.5
3147.76130439882	1161.59997558594
3149.87337580154	1164.69995117188
3151.98485525929	1167.69995117188
3154.09574303872	1166.19995117188
3156.20603940634	1164.90002441406
3158.31574462857	1163.40002441406
3160.42485897167	1162.40002441406
3162.53338270181	1164.90002441406
3164.64131608498	1163.80004882813
3166.74865938712	1162.69995117188
3168.85541287398	1167.59997558594
3170.96157681123	1163.69995117188
3173.0671514644	1163.5
3175.17213709889	1165.80004882813
3177.27653397998	1164.5
3179.38034237284	1163
3181.48356254248	1163.5
3183.58619475382	1164.40002441406
3185.68823927165	1164.40002441406
3187.78969636061	1163.5
3189.89056628524	1167
3191.99084930995	1165.59997558594
3194.09054569901	1164.80004882813
3196.18965571659	1164.5
3198.28817962671	1166.80004882813
3200.38611769327	1163.09997558594
3202.48347018006	1164.69995117188
3204.58023735073	1163
3206.67641946881	1166.19995117188
3208.77201679769	1164.09997558594
3210.86702960065	1163.09997558594
3212.96145814084	1165.5
3215.05530268128	1164
3217.14856348487	1165.59997558594
3219.24124081437	1167.19995117188
3221.33333493243	1164.40002441406
3223.42484610157	1166.5
3225.51577458416	1168.40002441406
3227.60612064247	1168.5
3229.69588453864	1171.40002441406
3231.78506653466	1175.90002441406
3233.87366689244	1178.69995117188
3235.9616858737	1179
3238.04912374008	1188
3240.13598075307	1193.5
3242.22225717405	1194.80004882813
3244.30795326425	1191.09997558594
3246.39306928479	1185.5
3248.47760549664	1184.59997558594
3250.56156216068	1181.40002441406
3252.64493953762	1172.5
3254.72773788807	1172.80004882813
3256.8099574725	1166.59997558594
3258.89159855124	1169
3260.97266138451	1166.90002441406
3263.05314623241	1164.30004882813
3265.13305335488	1165.40002441406
3267.21238301175	1163.90002441406
3269.29113546272	1162.30004882813
3271.36931096736	1161.80004882813
3273.4469097851	1162.90002441406
3275.52393217526	1160.80004882813
3277.60037839702	1164.09997558594
3279.67624870941	1162.90002441406
3281.75154337138	1162.09997558594
3283.8262626417	1165.5
3285.90040677904	1162.59997558594
3287.97397604193	1159.69995117188
3290.04697068876	1164.30004882813
3292.11939097781	1160.90002441406
3294.19123716721	1160.30004882813
3296.26250951497	1162
3298.33320827897	1159.5
3300.40333371696	1162
3302.47288608655	1166.19995117188
3304.54186564524	1162.30004882813
3306.61027265036	1162.5
3308.67810735915	1161.19995117188
3310.74537002869	1160.30004882813
3312.81206091594	1162
3314.87818027774	1159.80004882813
3316.94372837077	1159.09997558594
3319.00870545161	1161.5
3321.07311177668	1166.5
3323.13694760229	1162.80004882813
3325.2002131846	1159.09997558594
3327.26290877964	1160.30004882813
3329.32503464334	1163.09997558594
3331.38659103145	1163
3333.4475781996	1160.80004882813
3335.50799640332	1159.69995117188
3337.56784589797	1158
3339.62712693879	1161.5
3341.68583978089	1159.30004882813
3343.74398467924	1158.30004882813
3345.80156188869	1158.5
3347.85857166394	1158.5
3349.91501425956	1163.30004882813
3351.97088992999	1159.19995117188
3354.02619892956	1163.80004882813
3356.0809415124	1160.09997558594
3358.13511793259	1158.40002441406
3360.18872844401	1159
3362.24177330044	1158.90002441406
3364.29425275552	1156
3366.34616706274	1161.30004882813
3368.39751647548	1161.69995117188
3370.44830124696	1162.30004882813
3372.49852163029	1159.80004882813
3374.54817787843	1158.09997558594
3376.5972702442	1161.59997558594
3378.64579898031	1158.30004882813
3380.69376433931	1159.09997558594
3382.74116657361	1160.30004882813
3384.78800593552	1160.80004882813
3386.83428267718	1162.80004882813
3388.8799970506	1162.19995117188
3390.92514930767	1158.40002441406
3392.96973970014	1160.90002441406
3395.01376847962	1160.59997558594
3397.05723589757	1157.5
3399.10014220533	1159.59997558594
3401.1424876541	1161.90002441406
3403.18427249495	1160.40002441406
3405.22549697881	1160.59997558594
3407.26616135646	1157.40002441406
3409.30626587856	1160.40002441406
3411.34581079563	1159.5
3413.38479635805	1161.59997558594
3415.42322281605	1160.09997558594
3417.46109041976	1159.40002441406
3419.49839941912	1159.19995117188
3421.53515006399	1157.5
3423.57134260405	1158.69995117188
3425.60697728886	1160.09997558594
3427.64205436783	1160.59997558594
3429.67657409025	1159
3431.71053670525	1160.09997558594
3433.74394246185	1160.59997558594
3435.77679160891	1158.69995117188
3437.80908439515	1162.30004882813
3439.84082106917	1160.90002441406
3441.87200187943	1159
3443.90262707421	1156.90002441406
3445.93269690172	1164.5
3447.96221160996	1155.80004882813
3449.99117144686	1158
3452.01957666015	1161.19995117188
3454.04742749746	1160.30004882813
3456.07472420626	1159
3458.1014670339	1160.59997558594
3460.12765622756	1159.80004882813
3462.15329203432	1159.5
3464.17837470108	1159.19995117188
3466.20290447463	1158.90002441406
3468.22688160161	1160
3470.25030632851	1157.40002441406
3472.2731789017	1158.19995117188
3474.29549956739	1157.59997558594
3476.31726857166	1159.30004882813
3478.33848616045	1163.69995117188
3480.35915257955	1160.59997558594
3482.37926807462	1160
3484.39883289117	1158.40002441406
3486.41784727458	1157.59997558594
3488.43631147007	1162
3490.45422572275	1157.40002441406
3492.47159027755	1156.90002441406
3494.4884053793	1156.90002441406
3496.50467127263	1158
3498.5203882021	1156.80004882813
3500.53555641208	1159.59997558594
3502.5501761468	1159.40002441406
3504.56424765036	1157.59997558594
3506.57777116674	1160.69995117188
3508.59074693973	1155.09997558594
3510.603175213	1160.69995117188
3512.61505623009	1158.5
3514.62639023438	1157
3516.63717746911	1161.09997558594
3518.64741817739	1157.19995117188
3520.65711260216	1156.90002441406
3522.66626098625	1159.19995117188
3524.67486357232	1158.80004882813
3526.6829206029	1158.30004882813
3528.69043232037	1159
3530.69739896698	1158.69995117188
3532.70382078481	1154.90002441406
3534.70969801583	1156.19995117188
3536.71503090183	1156.90002441406
3538.71981968447	1157.90002441406
3540.72406460529	1156.80004882813
3542.72776590566	1156.19995117188
3544.7309238268	1160
3546.7335386098	1156.69995117188
3548.7356104956	1157.19995117188
3550.737139725	1159.19995117188
3552.73812653866	1157.90002441406
3554.73857117706	1156.09997558594
3556.73847388059	1157.40002441406
3558.73783488944	1158.40002441406
3560.7366544437	1155.69995117188
3562.73493278328	1155.80004882813
3564.73267014797	1159.69995117188
3566.7298667774	1157.90002441406
3568.72652291106	1158.5
3570.72263878828	1156.80004882813
3572.71821464827	1156
3574.71325073007	1157.90002441406
3576.70774727257	1162
3578.70170451455	1157.59997558594
3580.6951226946	1154.30004882813
3582.68800205121	1157.80004882813
3584.68034282266	1156.80004882813
3586.67214524714	1159.09997558594
3588.66340956266	1156.40002441406
3590.6541360071	1157.09997558594
3592.6443248182	1154
3594.63397623352	1157.69995117188
3596.6230904905	1156.5
3598.61166782642	1154.80004882813
3600.59970847842	1155.30004882813
3602.58721268348	1155.90002441406
3604.57418067846	1156.09997558594
3606.56061270003	1156.19995117188
3608.54650898475	1155.40002441406
3610.53186976901	1159.5
3612.51669528905	1156.19995117188
3614.50098578098	1156.19995117188
3616.48474148074	1153.5
3618.46796262413	1155.19995117188
3620.45064944681	1154.5
3622.43280218428	1153.5
3624.41442107188	1156.30004882813
3626.39550634484	1154.19995117188
3628.37605823819	1156.80004882813
3630.35607698685	1154.30004882813
3632.33556282556	1155.5
3634.31451598894	1154.5
3636.29293671143	1156.5
3638.27082522735	1155.30004882813
3640.24818177084	1153.59997558594
3642.22500657592	1158.40002441406
3644.20129987644	1152.30004882813
3646.17706190608	1154.19995117188
3648.15229289843	1157.40002441406
3650.12699308687	1154.09997558594
3652.10116270465	1158.5
3654.07480198488	1156.30004882813
3656.04791116049	1154.40002441406
3658.02049046431	1158.09997558594
3659.99254012895	1156.69995117188
3661.96406038692	1157.30004882813
3663.93505147056	1154.09997558594
3665.90551361207	1155.80004882813
3667.87544704349	1156.59997558594
3669.84485199668	1154.69995117188
3671.81372870341	1157.19995117188
3673.78207739523	1153.59997558594
3675.7498983036	1154.90002441406
3677.71719165977	1156.80004882813
3679.68395769488	1155.09997558594
3681.65019663991	1157.40002441406
3683.61590872567	1156.40002441406
3685.58109418282	1156.40002441406
3687.54575324187	1155
3689.5098861332	1154.59997558594
3691.473493087	1154.80004882813
3693.43657433333	1154.80004882813
3695.39913010208	1157.90002441406
3697.36116062301	1154.19995117188
3699.32266612569	1156.69995117188
3701.28364683959	1155.30004882813
3703.24410299397	1154.5
3705.20403481795	1156.90002441406
3707.16344254053	1155.09997558594
3709.12232639052	1153.80004882813
3711.08068659659	1154.59997558594
3713.03852338724	1153.80004882813
3714.99583699084	1154.09997558594
3716.95262763558	1156
3718.90889554951	1153.80004882813
3720.86464096053	1153.5
3722.81986409636	1155.40002441406
3724.7745651846	1155.30004882813
3726.72874445265	1152.69995117188
3728.6824021278	1154.59997558594
3730.63553843715	1157.59997558594
3732.58815360767	1152.59997558594
3734.54024786615	1155.69995117188
3736.49182143924	1151.69995117188
3738.44287455343	1154
3740.39340743505	1157.59997558594
3742.34342031027	1154.80004882813
3744.29291340513	1159.30004882813
3746.24188694546	1153.09997558594
3748.190341157	1152.5
3750.13827626527	1154.19995117188
3752.08569249567	1151.69995117188
3754.03259007345	1156.5
3755.97896922367	1153.80004882813
3757.92483017124	1154.90002441406
3759.87017314094	1155.09997558594
3761.81499835737	1153.30004882813
3763.75930604498	1154.09997558594
3765.70309642803	1154
3767.64636973068	1151.30004882813
3769.58912617689	1155.5
3771.53136599047	1150.90002441406
3773.47308939509	1154.90002441406
3775.41429661421	1151.5
