-174.488245116115	1148.19995117188
-171.353866679816	1147.90002441406
-168.22051297009	1148.5
-165.088183560586	1149
-161.956878025242	1148.59997558594
-158.826595938226	1150
-155.697336873968	1147
-152.569100407157	1145.90002441406
-149.441886112741	1147.30004882813
-146.315693565896	1147.5
-143.190522342091	1148.40002441406
-140.066372017002	1148.90002441406
-136.943242166608	1148
-133.82113236709	1147.30004882813
-130.7000421949	1147
-127.579971226752	1148.5
-124.46091903959	1146.40002441406
-121.342885210617	1150.80004882813
-118.225869317289	1148.69995117188
-115.109870937295	1146.80004882813
-111.994889648578	1147.59997558594
-108.880925029339	1149.90002441406
-105.767976658009	1148
-102.656044113272	1146.19995117188
-99.5451269740494	1147.69995117188
-96.4352248195329	1147.40002441406
-93.3263372291173	1148.90002441406
-90.2184637824824	1149
-87.1116040595153	1149.19995117188
-84.0057576403752	1148.09997558594
-80.9009241054446	1147.59997558594
-77.7971030353455	1148.19995117188
-74.6942940109553	1147.90002441406
-71.5924966133822	1146.69995117188
-68.4917104239774	1148.09997558594
-65.3919350243307	1146.09997558594
-62.2931699962624	1147.59997558594
-59.1954149218515	1148.30004882813
-56.0986693833866	1147
-53.0029329634189	1146.69995117188
-49.908205244721	1145.40002441406
-46.8144858103075	1147.59997558594
-43.7217742434262	1150.40002441406
-40.6300701275667	1148.40002441406
-37.5393730464434	1147.69995117188
-34.4496825840078	1145.40002441406
-31.3609983244403	1148.19995117188
-28.273319852166	1147.40002441406
-25.1866467518426	1148.09997558594
-22.10097860834	1148.40002441406
-19.0163150067886	1144.80004882813
-15.9326555325185	1150.5
-12.8499997711119	1148.40002441406
-9.76834730837485	1149.40002441406
-6.68769773034879	1148
-3.60805062329064	1150
-0.529405573692618	1152.69995117188
2.54823783170989	1165.59997558594
5.62488000599066	1158.40002441406
8.70052136196052	1150.19995117188
11.7751623122237	1147.69995117188
14.8488032691459	1148.59997558594
17.9214446448865	1148.69995117188
20.9930868513505	1148.80004882813
24.0637303002531	1149.40002441406
27.1333754030514	1145.90002441406
30.2020225710047	1149.09997558594
33.2696722151428	1147.59997558594
36.3363247462699	1147.40002441406
39.401980574957	1148.30004882813
42.4666401115817	1147.90002441406
45.5303037662728	1151
48.5929719489461	1146.19995117188
51.6546450693084	1146.19995117188
54.7153235368463	1148
57.7750077608055	1149
60.8336981502356	1147.90002441406
63.891395113966	1148.80004882813
66.9480990605899	1148.59997558594
70.0038103985047	1148.80004882813
73.0585295358718	1148.90002441406
76.112256880665	1155.40002441406
79.1649928406108	1172.80004882813
82.21673782324	1225
85.2674922358484	1307.30004882813
88.3172564855524	1346.90002441406
91.3660309792176	1376.19995117188
94.4138161235146	1382.19995117188
97.4606123248875	1389.5
100.506419989605	1380.90002441406
103.551239523679	1370.80004882813
106.595071332926	1384.30004882813
109.637915822959	1374.40002441406
112.679773399166	1371
115.720644466743	1371.90002441406
118.760529430661	1358.5
121.799428695683	1352.09997558594
124.83734266637	1360
127.874271747074	1357.5
130.910216341928	1346
133.945176854874	1343.5
136.979153689627	1342.09997558594
140.012147249714	1338.30004882813
143.044157938449	1331.40002441406
146.075186158938	1337.09997558594
149.105232314081	1328
152.134296806573	1321.5
155.162380038908	1318.19995117188
158.189482413382	1314.80004882813
161.215604332062	1318.40002441406
164.240746196836	1309.30004882813
167.264908409388	1308.09997558594
170.288091371194	1320.59997558594
173.310295483525	1303.69995117188
176.331521147454	1315.90002441406
179.351768763859	1304.59997558594
182.3710387334	1310.59997558594
185.389331456545	1309.90002441406
188.40664733357	1302.80004882813
191.422986764561	1297.80004882813
194.438350149375	1296.09997558594
197.452737887679	1294.69995117188
200.466150378974	1300.19995117188
203.478588022515	1300.30004882813
206.490051217389	1303.09997558594
209.500540362482	1297.30004882813
212.510055856486	1311
215.51859809788	1304.90002441406
218.526167484984	1306.19995117188
221.532764415869	1314.69995117188
224.538389288469	1317.40002441406
227.543042500475	1323
230.546724449419	1330.09997558594
233.549435532609	1339.19995117188
236.551176147184	1335.09997558594
239.551946690085	1342.40002441406
242.551747558066	1342
245.55057914767	1341.69995117188
248.548441855258	1345.30004882813
251.545336077006	1351.40002441406
254.541262208898	1347
257.536220646712	1351.59997558594
260.53021178606	1354.09997558594
263.523236022356	1360
266.515293750805	1364.69995117188
269.506385366465	1364.69995117188
272.496511264158	1363.40002441406
275.485671838549	1368.5
278.473867484101	1359.19995117188
281.461098595114	1374
284.44736556567	1377.30004882813
287.432668789673	1393.30004882813
290.417008660864	1391.69995117188
293.400385572757	1402.5
296.382799918725	1417
299.364252091929	1444.5
302.344742485338	1456.90002441406
305.324271491768	1455.19995117188
308.302839503825	1442.19995117188
311.280446913945	1424.59997558594
314.257094114377	1405.69995117188
317.23278149719	1382.80004882813
320.207509454258	1373.30004882813
323.181278377283	1357.09997558594
326.154088657796	1365.30004882813
329.125940687134	1349.80004882813
332.096834856454	1342.30004882813
335.066771556737	1340.59997558594
338.035751178774	1335.69995117188
341.003774113189	1333.30004882813
343.97084075043	1328.90002441406
346.936951480745	1322.80004882813
349.902106694219	1323.09997558594
352.866306780769	1320.90002441406
355.82955213011	1314.59997558594
358.791843131792	1313.19995117188
361.753180175185	1309.59997558594
364.713563649499	1319
367.672993943731	1310.59997558594
370.631471446741	1308.90002441406
373.588996547206	1307.69995117188
376.545569633593	1309.30004882813
379.501191094236	1293
382.45586131727	1295.5
385.409580690674	1298
388.362349602236	1295.5
391.314168439577	1279.90002441406
394.265037590153	1289.40002441406
397.214957441235	1286.19995117188
400.16392837993	1280.5
403.111950793165	1288.80004882813
406.059025067691	1277.59997558594
409.005151590118	1282.19995117188
411.950330746855	1292.5
414.894562924143	1283.5
417.837848508063	1285.19995117188
420.780187884513	1283.69995117188
423.721581439244	1284.80004882813
426.662029557819	1283.30004882813
429.601532625628	1286.19995117188
432.540091027909	1292.5
435.477705149715	1292.5
438.414375375956	1287.5
441.350102091341	1281.09997558594
444.284885680439	1266.59997558594
447.218726527646	1263.59997558594
450.151625017169	1254.80004882813
453.083581533085	1249.19995117188
456.014596459275	1243.09997558594
458.94467017946	1233.90002441406
461.87380307723	1233
464.801995535963	1238.40002441406
467.72924793888	1247.30004882813
470.655560669072	1249.19995117188
473.580934109433	1260.69995117188
476.505368642699	1258.80004882813
479.42886465145	1271.5
482.351422518103	1268.30004882813
485.273042624905	1281.19995117188
488.193725353949	1296
491.113471087159	1309.09997558594
494.032280206301	1332.5
496.950153092974	1359.69995117188
499.867090128629	1398.09997558594
502.783091694533	1467.69995117188
505.698158171827	1603.09997558594
508.612289941456	1863.69995117188
511.525487384225	2554
514.43775088078	4784.2998046875
517.3490808116	9663.7998046875
520.259477557008	12528.599609375
523.168941497168	9052.900390625
526.077473012083	5097.89990234375
528.98507248161	3179.89990234375
531.891740285434	2346
534.797476803086	1912.19995117188
537.702282413949	1675.5
540.606157497241	1559.59997558594
543.509102432012	1473.30004882813
546.411117597179	1405.40002441406
549.312203371496	1366.30004882813
552.212360133551	1334.69995117188
555.111588261787	1316.30004882813
558.009888134493	1297.40002441406
560.907260129786	1292.30004882813
563.803704625648	1279
566.699221999907	1272.09997558594
569.593812630219	1263.5
572.487476894111	1247.30004882813
575.380215168932	1248.40002441406
578.272027831898	1245.90002441406
581.162915260056	1240.5
584.052877830319	1239.59997558594
586.941915919431	1240.19995117188
589.830029903984	1238.40002441406
592.717220160442	1233.40002441406
595.603487065095	1236.5
598.488830994078	1236.09997558594
601.373252323396	1238.69995117188
604.256751428889	1234.69995117188
607.139328686265	1245.59997558594
610.020984471038	1252.09997558594
612.90171915863	1260.90002441406
615.781533124278	1259.5
618.660426743072	1263.09997558594
621.538400389971	1257.30004882813
624.415454439761	1263.80004882813
627.291589267105	1257
630.166805246513	1245.80004882813
633.041102752313	1240.80004882813
635.914482158742	1244
638.786943839845	1235.90002441406
641.658488169547	1241
644.529115521603	1246.90002441406
647.398826269641	1239.5
650.267620787151	1241.40002441406
653.135499447438	1239.69995117188
656.002462623708	1236.09997558594
658.868510688984	1242.59997558594
661.733644016172	1245.90002441406
664.59786297802	1250
667.461167947139	1253.19995117188
670.32355929598	1252.30004882813
673.185037396862	1240.59997558594
676.045602621965	1247.80004882813
678.905255343306	1236.19995117188
681.763995932795	1239.19995117188
684.621824762164	1229.90002441406
687.47874220302	1229.30004882813
690.334748626818	1225
693.189844404876	1222.80004882813
696.044029908375	1217.80004882813
698.897305508341	1212
701.749671575677	1211.80004882813
704.601128481138	1214.30004882813
707.451676595324	1210.40002441406
710.301316288718	1212.09997558594
713.150047931639	1210
715.997871894292	1206.5
718.844788546713	1209
721.690798258824	1200.69995117188
724.535901400393	1206
727.380098341057	1206.40002441406
730.223389450309	1207.30004882813
733.065775097502	1199.30004882813
735.907255651861	1209
738.747831482461	1205
741.587502958238	1201.09997558594
744.426270448005	1203.59997558594
747.264134320431	1201.90002441406
750.101094944034	1212.69995117188
752.937152687221	1207.90002441406
755.772307918238	1207.59997558594
758.606561005211	1208.59997558594
761.439912316121	1210.69995117188
764.272362218816	1211.90002441406
767.103911081018	1214.90002441406
769.934559270291	1218.80004882813
772.764307154079	1214.19995117188
775.593155099695	1218
778.42110347431	1216.59997558594
781.248152644956	1215.59997558594
784.074302978539	1215.90002441406
786.899554841832	1219.80004882813
789.723908601474	1217.30004882813
792.547364623949	1222.69995117188
795.369923275648	1222.80004882813
798.191584922798	1221.90002441406
801.012349931499	1225.40002441406
803.832218667714	1229.80004882813
806.651191497303	1224.90002441406
809.469268785944	1231.40002441406
812.286450899232	1237.30004882813
815.1027382026	1229.5
817.918131061357	1232.59997558594
820.73262984068	1233.80004882813
823.546234905624	1237.90002441406
826.358946621095	1233.19995117188
829.170765351889	1233.40002441406
831.981691462663	1237
834.791725317936	1218.90002441406
837.600867282103	1229.69995117188
840.409117719429	1235
843.216476994053	1225.69995117188
846.022945469989	1226.90002441406
848.828523511098	1228.30004882813
851.633211481134	1225.30004882813
854.437009743721	1228.19995117188
857.239918662353	1221.40002441406
860.041938600383	1230.09997558594
862.843069921057	1224.30004882813
865.643312987472	1226.69995117188
868.442668162604	1230.59997558594
871.241135809316	1227.19995117188
874.038716290324	1231.80004882813
876.835409968233	1228.30004882813
879.63121720551	1227.19995117188
882.426138364494	1234.30004882813
885.22017380741	1228.90002441406
888.013323896339	1233.19995117188
890.805588993253	1223.30004882813
893.596969459993	1227.5
896.387465658265	1235.59997558594
899.177077949666	1231.59997558594
901.965806695649	1230.30004882813
904.75365225756	1233.69995117188
907.540614996601	1230.30004882813
910.326695273873	1238.09997558594
913.111893450328	1234.59997558594
915.896209886813	1238.30004882813
918.679644944044	1245.59997558594
921.462198982604	1260.5
924.243872362968	1279.19995117188
927.02466544548	1313.69995117188
929.804578590358	1363.5
932.583612157696	1404.59997558594
935.361766507473	1474.69995117188
938.13904199954	1537
940.915438993633	1559.80004882813
943.690957849354	1581.59997558594
946.465598926189	1574.69995117188
949.239362583496	1578.69995117188
952.012249180518	1569
954.784259076376	1591.09997558594
957.555392630071	1571.80004882813
960.325650200475	1576.30004882813
963.09503214635	1593
965.863538826323	1602.19995117188
968.631170598912	1597.59997558594
971.397927822515	1602.80004882813
974.163810855393	1593.59997558594
976.928820055712	1608.5
979.692955781498	1593.19995117188
982.456218390671	1587.59997558594
985.218608241021	1550.90002441406
987.980125690221	1484.30004882813
990.740771095826	1441.09997558594
993.500544815275	1400.90002441406
996.259447205875	1360.69995117188
999.017478624842	1331.30004882813
1001.77463942924	1317.80004882813
1004.53092997605	1310.19995117188
1007.28635062209	1285.80004882813
1010.0409017241	1276.19995117188
1012.79458363868	1258.30004882813
1015.54739672233	1260.30004882813
1018.29934133142	1248.69995117188
1021.05041782219	1246
1023.8006265508	1234.5
1026.54996787325	1224.5
1029.29844214545	1216
1032.0460497232	1208.19995117188
1034.79279096215	1200.30004882813
1037.53866621786	1197.19995117188
1040.28367584578	1195.5
1043.02782020123	1189.59997558594
1045.7710996394	1181.30004882813
1048.51351451539	1182.09997558594
1051.25506518417	1182.30004882813
1053.99575200061	1188.90002441406
1056.73557531945	1178.5
1059.4745354953	1175.40002441406
1062.2126328827	1179.19995117188
1064.94986783605	1182.40002441406
1067.68624070961	1176.40002441406
1070.42175185757	1176.40002441406
1073.15640163398	1179
1075.89019039278	1176.59997558594
1078.6231184878	1178.69995117188
1081.35518627276	1180.59997558594
1084.08639410125	1178.80004882813
1086.81674232676	1175.69995117188
1089.54623130267	1179.40002441406
1092.27486138224	1175.80004882813
1095.00263291861	1178.40002441406
1097.72954626482	1176.09997558594
1100.45560177378	1176.59997558594
1103.18079979831	1176
1105.90514069112	1179.90002441406
1108.62862480477	1175.5
1111.35125249175	1174.5
1114.07302410441	1174.69995117188
1116.793939995	1173.40002441406
1119.51400051566	1176.69995117188
1122.23320601841	1174
1124.95155685517	1173.80004882813
1127.66905337774	1179.80004882813
1130.38569593782	1174
1133.10148488697	1177.09997558594
1135.81642057667	1168.40002441406
1138.53050335829	1174.40002441406
1141.24373358306	1176.5
1143.95611160214	1176.59997558594
1146.66763776654	1171.69995117188
1149.37831242718	1170.30004882813
1152.08813593487	1172.90002441406
1154.7971086403	1174.09997558594
1157.50523089408	1178.09997558594
1160.21250304667	1173.59997558594
1162.91892544844	1174.80004882813
1165.62449844965	1171.59997558594
1168.32922240045	1173.59997558594
1171.0330976509	1167.09997558594
1173.73612455091	1171.80004882813
1176.43830345031	1172
1179.13963469882	1170.19995117188
1181.84011864604	1170.80004882813
1184.53975564147	1170
1187.23854603451	1172.80004882813
1189.93649017442	1174.69995117188
1192.63358841039	1172.19995117188
1195.32984109149	1166.80004882813
1198.02524856667	1169
1200.71981118478	1169
1203.41352929457	1173.19995117188
1206.10640324467	1171
1208.79843338361	1170.90002441406
1211.48962005981	1170.5
1214.17996362159	1173.59997558594
1216.86946441716	1167.59997558594
1219.55812279461	1172.5
1222.24593910194	1170.40002441406
1224.93291368704	1173.09997558594
1227.61904689769	1171.40002441406
1230.30433908157	1172
1232.98879058625	1166.80004882813
1235.67240175918	1169.90002441406
1238.35517294773	1169.30004882813
1241.03710449915	1169.30004882813
1243.71819676058	1177.30004882813
1246.39845007907	1169.59997558594
1249.07786480155	1168.19995117188
1251.75644127485	1172.59997558594
1254.43417984571	1171.59997558594
1257.11108086072	1174.80004882813
1259.78714466643	1173
1262.46237160921	1170.09997558594
1265.1367620354	1170.90002441406
1267.81031629118	1171.5
1270.48303472266	1172.59997558594
1273.15491767583	1170.09997558594
1275.82596549657	1165.30004882813
1278.49617853067	1171.80004882813
1281.16555712381	1171.19995117188
1283.83410162156	1173.19995117188
1286.50181236939	1170.09997558594
1289.16868971269	1169.80004882813
1291.8347339967	1169
1294.49994556659	1168.30004882813
1297.16432476743	1170.09997558594
1299.82787194415	1167.90002441406
1302.49058744163	1172.09997558594
1305.15247160459	1172.69995117188
1307.81352477769	1172.90002441406
1310.47374730548	1170.5
1313.1331395324	1175.59997558594
1315.79170180277	1170.19995117188
1318.44943446083	1168
1321.10633785073	1167.90002441406
1323.76241231648	1166.30004882813
1326.41765820202	1173.19995117188
1329.07207585117	1172.40002441406
1331.72566560766	1167
1334.3784278151	1169
1337.03036281703	1164.30004882813
1339.68147095686	1171.40002441406
1342.33175257789	1169.09997558594
1344.98120802335	1174.80004882813
1347.62983763636	1169.5
1350.27764175994	1168.59997558594
1352.92462073697	1165.69995117188
1355.57077491028	1167.80004882813
1358.21610462259	1168.09997558594
1360.86061021649	1167.80004882813
1363.50429203449	1168.90002441406
1366.14715041901	1169.69995117188
1368.78918571234	1168.69995117188
1371.4303982567	1166.5
1374.07078839419	1170.69995117188
1376.71035646681	1169.69995117188
1379.34910281647	1167.90002441406
1381.98702778498	1169.59997558594
1384.62413171402	1166.69995117188
1387.26041494523	1168.5
1389.89587782008	1169.80004882813
1392.53052068001	1171.40002441406
1395.16434386629	1169.30004882813
1397.79734772015	1168.5
1400.42953258269	1167.09997558594
1403.0608987949	1168.90002441406
1405.69144669771	1169.90002441406
1408.32117663193	1168.90002441406
1410.95008893825	1172.59997558594
1413.57818395728	1169.80004882813
1416.20546202954	1165.40002441406
1418.83192349543	1166.80004882813
1421.45756869528	1170.69995117188
1424.08239796929	1167.30004882813
1426.70641165757	1168.90002441406
1429.32961010016	1170.19995117188
1431.95199363695	1169.69995117188
1434.57356260778	1167.80004882813
1437.19431735237	1172
1439.81425821033	1175.09997558594
1442.43338552118	1175.19995117188
1445.05169962437	1167.69995117188
1447.66920085921	1176
1450.28588956493	1168.80004882813
1452.90176608067	1174.19995117188
1455.51683074547	1167.80004882813
1458.13108389825	1168.59997558594
1460.74452587786	1169.90002441406
1463.35715702303	1167.40002441406
1465.96897767243	1164.69995117188
1468.57998816457	1168.30004882813
1471.19018883794	1169.80004882813
1473.79958003086	1168.90002441406
1476.4081620816	1167.30004882813
1479.01593532831	1169.40002441406
1481.62290010905	1169.59997558594
1484.22905676179	1171.40002441406
1486.83440562438	1162.69995117188
1489.43894703461	1167.59997558594
1492.04268133016	1170.09997558594
1494.64560884857	1164.69995117188
1497.24772992735	1168.40002441406
1499.84904490388	1165.09997558594
1502.44955411543	1165.69995117188
1505.0492578992	1166.90002441406
1507.64815659229	1165
1510.24625053168	1165.09997558594
1512.84354005429	1166.19995117188
1515.44002549691	1167.5
1518.03570719625	1166.09997558594
1520.63058548894	1166.90002441406
1523.22466071147	1164
1525.81793320028	1165.90002441406
1528.41040329169	1167.40002441406
1531.00207132192	1163.40002441406
1533.59293762712	1166.40002441406
1536.18300254332	1164.5
1538.77226640645	1162.5
1541.36072955237	1160.5
1543.94839231684	1163.69995117188
1546.53525503548	1163.19995117188
1549.12131804389	1166.80004882813
1551.70658167752	1166.30004882813
1554.29104627173	1169.30004882813
1556.87471216181	1168.30004882813
1559.45757968292	1164.09997558594
1562.03964917017	1163.40002441406
1564.62092095853	1165.59997558594
1567.2013953829	1164.09997558594
1569.78107277808	1165.09997558594
1572.35995347877	1165.40002441406
1574.93803781959	1168
1577.51532613504	1167.80004882813
1580.09181875956	1166
1582.66751602746	1165.09997558594
1585.24241827297	1167.90002441406
1587.81652583024	1165
1590.3898390333	1165.5
1592.96235821611	1164
1595.53408371251	1165.69995117188
1598.10501585628	1163.5
1600.67515498106	1168.59997558594
1603.24450142043	1162.5
1605.81305550788	1165.69995117188
1608.38081757677	1166
1610.9477879604	1162.40002441406
1613.51396699198	1165.90002441406
1616.07935500458	1160.90002441406
1618.64395233122	1168.5
1621.20775930483	1165.5
1623.7707762582	1164.40002441406
1626.33300352408	1163.40002441406
1628.89444143508	1165.69995117188
1631.45509032376	1166
1634.01495052255	1163.69995117188
1636.5740223638	1164.69995117188
1639.13230617978	1165.19995117188
1641.68980230264	1165
1644.24651106446	1165.30004882813
1646.80243279721	1162.59997558594
1649.35756783278	1164.30004882813
1651.91191650296	1165.90002441406
1654.46547913944	1166.90002441406
1657.01825607383	1167.09997558594
1659.57024763764	1165.30004882813
1662.12145416229	1167
1664.6718759791	1167.59997558594
1667.2215134193	1165.09997558594
1669.77036681404	1164.5
1672.31843649435	1163.80004882813
1674.8657227912	1167.40002441406
1677.41222603543	1162.19995117188
1679.95794655782	1163.30004882813
1682.50288468904	1164.40002441406
1685.04704075968	1162.90002441406
1687.59041510022	1164.09997558594
1690.13300804106	1163.59997558594
1692.67481991249	1161
1695.21585104474	1164.80004882813
1697.75610176791	1164.69995117188
1700.29557241205	1166.40002441406
1702.83426330707	1161.80004882813
1705.37217478282	1166.40002441406
1707.90930716905	1167.40002441406
1710.44566079541	1165.19995117188
1712.98123599146	1164
1715.51603308669	1167.90002441406
1718.05005241045	1161.80004882813
1720.58329429205	1163.40002441406
1723.11575906067	1161.5
1725.64744704542	1164.30004882813
1728.17835857532	1165.19995117188
1730.70849397927	1163.40002441406
1733.2378535861	1164.69995117188
1735.76643772453	1164.69995117188
1738.29424672323	1167
1740.82128091074	1165.5
1743.3475406155	1162.69995117188
1745.87302616589	1161.80004882813
1748.39773789019	1164.09997558594
1750.92167611656	1165.59997558594
1753.44484117311	1165
1755.96723338783	1165.69995117188
1758.48885308862	1167.5
1761.00970060331	1165.40002441406
1763.52977625961	1163.19995117188
1766.04908038514	1162.09997558594
1768.56761330746	1163.09997558594
1771.08537535401	1164.40002441406
1773.60236685214	1166.09997558594
1776.11858812912	1164.69995117188
1778.63403951211	1165.09997558594
1781.14872132821	1163.59997558594
1783.6626339044	1166.19995117188
1786.17577756757	1163.19995117188
1788.68815264454	1165.90002441406
1791.199759462	1164.69995117188
1793.7105983466	1163.80004882813
1796.22066962486	1164.90002441406
1798.72997362322	1161.90002441406
1801.23851066803	1165.69995117188
1803.74628108554	1165
1806.25328520193	1166.30004882813
1808.75952334326	1164.09997558594
1811.2649958355	1162.80004882813
1813.76970300458	1165
1816.27364517628	1163.5
1818.77682267629	1166.59997558594
1821.27923583026	1163
1823.78088496369	1166.09997558594
1826.28177040204	1162.40002441406
1828.78189247064	1166.09997558594
1831.28125149473	1164.30004882813
1833.77984779949	1167.09997558594
1836.27768170998	1165.30004882813
1838.77475355119	1163
1841.271063648	1166.69995117188
1843.76661232521	1163.80004882813
1846.26139990751	1163.59997558594
1848.75542671954	1164.5
1851.2486930858	1165.59997558594
1853.74119933074	1163.80004882813
1856.23294577869	1164.5
1858.72393275391	1165.59997558594
1861.21416058054	1160.30004882813
1863.70362958267	1163.5
1866.19234008426	1162.80004882813
1868.6802924092	1163.19995117188
1871.16748688129	1161
1873.65392382424	1166.09997558594
1876.13960356164	1166.5
1878.62452641704	1165.5
1881.10869271384	1164.90002441406
1883.59210277541	1162.69995117188
1886.07475692498	1162.59997558594
1888.55665548571	1167.30004882813
1891.03779878067	1161.40002441406
1893.51818713284	1163.80004882813
1895.99782086509	1163
1898.47670030024	1165.09997558594
1900.95482576096	1164.5
1903.43219756989	1164.30004882813
1905.90881604954	1162
1908.38468152235	1165.19995117188
1910.85979431064	1165.59997558594
1913.33415473668	1166.40002441406
1915.80776312261	1161.90002441406
1918.28061979051	1163.30004882813
1920.75272506234	1164.19995117188
1923.22407926001	1163.5
1925.69468270529	1165
1928.16453571989	1163.40002441406
1930.63363862544	1163.5
1933.10199174344	1163.90002441406
1935.56959539533	1165.80004882813
1938.03644990244	1167.59997558594
1940.50255558603	1165.5
1942.96791276726	1166.09997558594
1945.43252176718	1164.59997558594
1947.8963829068	1165.09997558594
1950.35949650697	1165.40002441406
1952.8218628885	1159
1955.2834823721	1165
1957.74435527836	1163.80004882813
1960.20448192784	1168.80004882813
1962.66386264093	1165.5
1965.12249773799	1165.40002441406
1967.58038753927	1162.80004882813
1970.03753236493	1164.5
1972.49393253504	1165.5
1974.94958836957	1165.30004882813
1977.4045001884	1164
1979.85866831133	1165.19995117188
1982.31209305807	1164.80004882813
1984.76477474823	1163.5
1987.21671370133	1162.80004882813
1989.6679102368	1164.30004882813
1992.11836467399	1160.40002441406
1994.56807733213	1162.59997558594
1997.0170485304	1163.30004882813
1999.46527858786	1161.40002441406
2001.91276782348	1163.90002441406
2004.35951655615	1163.90002441406
2006.80552510467	1163.59997558594
2009.25079378774	1161.09997558594
2011.69532292397	1164.30004882813
2014.13911283188	1162.5
2016.58216382991	1162.80004882813
2019.02447623639	1160.5
2021.46605036956	1162.5
2023.90688654761	1163.19995117188
2026.34698508858	1167.80004882813
2028.78634631045	1160.69995117188
2031.22497053111	1162.40002441406
2033.66285806835	1162.09997558594
2036.10000923987	1167.19995117188
2038.53642436328	1165.90002441406
2040.97210375611	1161.69995117188
2043.40704773578	1162.90002441406
2045.84125661964	1162.59997558594
2048.27473072492	1164.90002441406
2050.70747036878	1163.40002441406
2053.13947586829	1158.19995117188
2055.57074754041	1160.5
2058.00128570205	1163.5
2060.43109066998	1161.69995117188
2062.8601627609	1163.5
2065.28850229143	1165.30004882813
2067.71610957807	1162.90002441406
2070.14298493726	1162.80004882813
2072.56912868532	1162.5
2074.99454113851	1162.80004882813
2077.41922261297	1163.59997558594
2079.84317342476	1161
2082.26639388986	1162.90002441406
2084.68888432414	1165
2087.1106450434	1164.09997558594
2089.53167636331	1163.30004882813
2091.95197859949	1162.40002441406
2094.37155206745	1162.5
2096.79039708261	1163
2099.20851396029	1165.40002441406
2101.62590301575	1165.40002441406
2104.04256456411	1164.09997558594
2106.45849892045	1165.19995117188
2108.87370639971	1162.40002441406
2111.28818731677	1165.19995117188
2113.70194198641	1166.30004882813
2116.11497072333	1168
2118.52727384211	1166.69995117188
2120.93885165726	1164.30004882813
2123.34970448321	1163.80004882813
2125.75983263425	1163.40002441406
2128.16923642463	1161.5
2130.57791616848	1164.30004882813
2132.98587217985	1161.40002441406
2135.3931047727	1166.69995117188
2137.79961426089	1162.90002441406
2140.20540095818	1165.80004882813
2142.61046517826	1162
2145.01480723472	1164.19995117188
2147.41842744104	1163.09997558594
2149.82132611063	1162.80004882813
2152.22350355681	1162.80004882813
2154.62496009279	1165.5
2157.0256960317	1162
2159.42571168658	1160.69995117188
2161.82500737036	1162.40002441406
2164.22358339589	1162.69995117188
2166.62144007595	1165.5
2169.01857772318	1164.30004882813
2171.41499665018	1162
2173.81069716942	1164.5
2176.20567959329	1161.59997558594
2178.59994423409	1161.09997558594
2180.99349140402	1164.5
2183.38632141519	1162.30004882813
2185.77843457964	1164.30004882813
2188.16983120927	1162.59997558594
2190.56051161594	1164.40002441406
2192.95047611139	1163.69995117188
2195.33972500725	1168.90002441406
2197.72825861511	1164.09997558594
2200.11607724641	1163.19995117188
2202.50318121254	1162.5
2204.88957082477	1163
2207.27524639429	1162.69995117188
2209.6602082322	1163.90002441406
2212.0444566495	1162.30004882813
2214.4279919571	1168.40002441406
2216.81081446582	1162.30004882813
2219.19292448638	1161.80004882813
2221.57432232942	1161.40002441406
2223.95500830547	1160.40002441406
2226.33498272498	1163.19995117188
2228.7142458983	1163.80004882813
2231.09279813569	1164.09997558594
2233.47063974732	1165.90002441406
2235.84777104327	1163.5
2238.2241923335	1160.90002441406
2240.59990392792	1163.19995117188
2242.97490613632	1166.09997558594
2245.34919926839	1166.80004882813
2247.72278363376	1162.59997558594
2250.09565954192	1161.80004882813
2252.46782730231	1164.30004882813
2254.83928722425	1168.30004882813
2257.21003961698	1165.59997558594
2259.58008478963	1163.40002441406
2261.94942305127	1164.5
2264.31805471084	1165.19995117188
2266.68598007721	1162.80004882813
2269.05319945914	1164.90002441406
2271.4197131653	1166.09997558594
2273.78552150427	1163.80004882813
2276.15062478456	1160.69995117188
2278.51502331454	1160.09997558594
2280.87871740252	1165.30004882813
2283.24170735671	1163.90002441406
2285.60399348521	1166.69995117188
2287.96557609605	1167.30004882813
2290.32645549714	1159.69995117188
2292.68663199633	1161.59997558594
2295.04610590133	1159.90002441406
2297.40487751981	1165.59997558594
2299.76294715931	1160.80004882813
2302.12031512727	1162
2304.47698173107	1163.5
2306.83294727796	1166.19995117188
2309.18821207512	1165.19995117188
2311.54277642963	1161.40002441406
2313.89664064847	1162.19995117188
2316.24980503852	1162.30004882813
2318.6022699066	1163.40002441406
2320.95403555938	1162.90002441406
2323.30510230349	1167.5
2325.65547044542	1161.40002441406
2328.0051402916	1164.19995117188
2330.35411214835	1164.90002441406
2332.7023863219	1161.40002441406
2335.04996311837	1163.90002441406
2337.39684284382	1163.30004882813
2339.74302580418	1164.69995117188
2342.08851230529	1163.09997558594
2344.43330265291	1165.59997558594
2346.7773971527	1166.40002441406
2349.12079611023	1162.5
2351.46349983096	1164
2353.80550862026	1163.19995117188
2356.14682278342	1165
2358.48744262562	1164
2360.82736845194	1162.09997558594
2363.16660056738	1160.59997558594
2365.50513927683	1160
2367.8429848851	1163.09997558594
2370.1801376969	1162.09997558594
2372.51659801683	1161
2374.85236614941	1162.90002441406
2377.18744239906	1163.19995117188
2379.52182707011	1161.59997558594
2381.85552046679	1165.80004882813
2384.18852289322	1165
2386.52083465345	1163.40002441406
2388.85245605142	1161
2391.18338739097	1164.19995117188
2393.51362897585	1162
2395.84318110973	1161.80004882813
2398.17204409615	1162.19995117188
2400.50021823858	1162.09997558594
2402.82770384038	1165.69995117188
2405.15450120483	1161.80004882813
2407.48061063509	1161.5
2409.80603243426	1165.5
2412.13076690529	1163.5
2414.4548143511	1165.5
2416.77817507445	1161.30004882813
2419.10084937804	1162.30004882813
2421.42283756447	1160.5
2423.74413993625	1162.59997558594
2426.06475679575	1163.19995117188
2428.38468844531	1162.59997558594
2430.70393518711	1163.69995117188
2433.02249732329	1164
2435.34037515584	1166.80004882813
2437.65756898669	1164.69995117188
2439.97407911767	1164.80004882813
2442.28990585049	1167.5
2444.60504948679	1165.59997558594
2446.91951032808	1162.09997558594
2449.23328867581	1162.40002441406
2451.54638483132	1163
2453.85879909585	1160.90002441406
2456.17053177052	1161.80004882813
2458.48158315639	1160.80004882813
2460.79195355441	1163.30004882813
2463.10164326542	1165.30004882813
2465.41065259017	1159.59997558594
2467.71898182932	1162.19995117188
2470.02663128344	1163.40002441406
2472.33360125296	1163.09997558594
2474.63989203825	1165
2476.94550393958	1159.40002441406
2479.25043725712	1163.30004882813
2481.55469229093	1162
2483.85826934098	1165.5
2486.16116870713	1161.19995117188
2488.46339068916	1161.59997558594
2490.76493558676	1163.90002441406
2493.06580369949	1165.19995117188
2495.36599532684	1162.80004882813
2497.66551076817	1163.80004882813
2499.96435032278	1163.69995117188
2502.26251428984	1164.19995117188
2504.56000296845	1167.30004882813
2506.85681665757	1164
2509.15295565612	1160.90002441406
2511.44842026287	1162.5
2513.74321077651	1165.09997558594
2516.03732749563	1160.5
2518.33077071873	1164.09997558594
2520.62354074419	1163.30004882813
2522.91563787031	1164.19995117188
2525.20706239528	1162.19995117188
2527.49781461721	1166.40002441406
2529.78789483408	1162.90002441406
2532.0773033438	1162
2534.36604044416	1160.59997558594
2536.65410643286	1166.40002441406
2538.9415016075	1163
2541.22822626558	1161.19995117188
2543.51428070449	1162.40002441406
2545.79966522154	1163.80004882813
2548.08438011393	1157.09997558594
2550.36842567876	1164.30004882813
2552.65180221302	1164.09997558594
2554.93451001363	1162.19995117188
2557.21654937738	1160.30004882813
2559.49792060096	1164.59997558594
2561.77862398098	1161.90002441406
2564.05865981395	1163.40002441406
2566.33802839626	1163.19995117188
2568.61673002421	1160.90002441406
2570.89476499399	1163.69995117188
2573.17213360172	1158.80004882813
2575.44883614338	1163.5
2577.72487291489	1163.59997558594
2580.00024421203	1162.19995117188
2582.27495033048	1160.69995117188
2584.54899156587	1161.69995117188
2586.82236821368	1163.59997558594
2589.0950805693	1163.90002441406
2591.36712892802	1165.80004882813
2593.63851358505	1160.40002441406
2595.90923483547	1159
2598.17929297426	1159.19995117188
2600.44868829631	1161.30004882813
2602.71742109642	1161
2604.98549166927	1165
2607.25290030944	1161.5
2609.51964731142	1161.19995117188
2611.78573296958	1163.59997558594
2614.05115757822	1159.59997558594
2616.31592143149	1164.69995117188
2618.58002482349	1165.19995117188
2620.84346804817	1162.59997558594
2623.10625139942	1157.69995117188
2625.36837517101	1160.40002441406
2627.6298396566	1159.80004882813
2629.89064514976	1164.80004882813
2632.15079194395	1162.40002441406
2634.41028033254	1163.19995117188
2636.66911060878	1160.09997558594
2638.92728306582	1159.30004882813
2641.18479799672	1163.30004882813
2643.44165569444	1161.90002441406
2645.69785645182	1161.59997558594
2647.95340056162	1163.59997558594
2650.20828831645	1161.69995117188
2652.46252000888	1163.5
2654.71609593134	1161.30004882813
2656.96901637616	1164.30004882813
2659.22128163557	1163.80004882813
2661.47289200171	1160.80004882813
2663.72384776659	1162.80004882813
2665.97414922213	1161.5
2668.22379666017	1162
2670.4727903724	1162.40002441406
2672.72113065044	1163.09997558594
2674.9688177858	1163.30004882813
2677.21585206988	1163
2679.46223379399	1162.19995117188
2681.70796324931	1160.19995117188
2683.95304072694	1160.40002441406
2686.19746651787	1162
2688.44124091298	1165.5
2690.68436420305	1165.5
2692.92683667876	1161.09997558594
2695.16865863068	1160.90002441406
2697.40983034928	1160.40002441406
2699.65035212492	1158.40002441406
2701.89022424785	1164
2704.12944700824	1164.09997558594
2706.36802069612	1158.80004882813
2708.60594560146	1159.5
2710.84322201407	1159.90002441406
2713.0798502237	1163.40002441406
2715.31583051998	1162.40002441406
2717.55116319244	1160.90002441406
2719.78584853048	1160.80004882813
2722.01988682344	1157.69995117188
2724.2532783605	1161.80004882813
2726.48602343079	1160.30004882813
2728.71812232329	1161.30004882813
2730.9495753269	1157
2733.1803827304	1162
2735.4105448225	1159.59997558594
2737.64006189173	1159.59997558594
2739.86893422659	1158.90002441406
2742.09716211544	1162.09997558594
2744.32474584653	1162.09997558594
2746.55168570802	1161.5
2748.77798198795	1162.59997558594
2751.00363497426	1159.59997558594
2753.22864495479	1158.69995117188
2755.45301221725	1161.59997558594
2757.67673704928	1161.80004882813
2759.89981973839	1160.69995117188
2762.12226057198	1162.80004882813
2764.34405983734	1160.40002441406
2766.56521782169	1161.59997558594
2768.7857348121	1160.69995117188
2771.00561109555	1164.09997558594
2773.22484695892	1165
2775.44344268897	1162.19995117188
2777.66139857236	1158.40002441406
2779.87871489564	1159.80004882813
2782.09539194526	1161.40002441406
2784.31143000754	1159.30004882813
2786.52682936873	1157.59997558594
2788.74159031494	1159.90002441406
2790.95571313218	1162
2793.16919810637	1162.40002441406
2795.38204552329	1165.19995117188
2797.59425566864	1163
2799.805828828	1158.69995117188
2802.01676528685	1162.19995117188
2804.22706533056	1163.5
2806.43672924436	1160.09997558594
2808.64575731343	1162.09997558594
2810.85414982279	1160.80004882813
2813.06190705738	1159.69995117188
2815.26902930203	1160.5
2817.47551684145	1160.30004882813
2819.68136996024	1159
2821.88658894291	1160.40002441406
2824.09117407383	1162.30004882813
2826.29512563729	1160.19995117188
2828.49844391747	1161.30004882813
2830.70112919842	1164.09997558594
2832.90318176409	1160.30004882813
2835.10460189833	1160
2837.30538988487	1160.19995117188
2839.50554600732	1162.80004882813
2841.70507054922	1159.69995117188
2843.90396379395	1162.80004882813
2846.10222602482	1158.59997558594
2848.29985752501	1161.40002441406
2850.49685857759	1159.40002441406
2852.69322946553	1160.69995117188
2854.88897047169	1162.5
2857.08408187879	1159.69995117188
2859.27856396949	1162.40002441406
2861.4724170263	1160
2863.66564133164	1160.69995117188
2865.85823716781	1162.40002441406
2868.050204817	1163.80004882813
2870.2415445613	1159.30004882813
2872.43225668266	1160.19995117188
2874.62234146295	1163.09997558594
2876.81179918393	1157.59997558594
2879.00063012722	1163.80004882813
2881.18883457435	1160.5
2883.37641280674	1162.69995117188
2885.56336510569	1161
2887.7496917524	1163.59997558594
2889.93539302793	1161.90002441406
2892.12046921326	1161.80004882813
2894.30492058926	1160.59997558594
2896.48874743666	1162.09997558594
2898.67195003609	1159.30004882813
2900.85452866809	1159.90002441406
2903.03648361305	1163.19995117188
2905.21781515128	1160.90002441406
2907.39852356295	1162.80004882813
2909.57860912814	1163.90002441406
2911.75807212682	1157.40002441406
2913.93691283883	1162.69995117188
2916.1151315439	1160.90002441406
2918.29272852166	1158.80004882813
2920.46970405161	1162.19995117188
2922.64605841316	1159.19995117188
2924.82179188558	1162
2926.99690474805	1159.80004882813
2929.17139727962	1158.69995117188
2931.34526975924	1161.59997558594
2933.51852246574	1162.80004882813
2935.69115567784	1157.69995117188
2937.86316967414	1160.69995117188
2940.03456473313	1163.30004882813
2942.20534113318	1164.59997558594
2944.37549915256	1159.09997558594
2946.54503906942	1159.40002441406
2948.71396116179	1160.80004882813
2950.8822657076	1161.09997558594
2953.04995298465	1163.40002441406
2955.21702327062	1161
2957.38347684312	1161.80004882813
2959.54931397958	1161
2961.71453495737	1159.5
2963.87914005372	1159.69995117188
2966.04312954574	1161.90002441406
2968.20650371045	1163.19995117188
2970.36926282472	1164.59997558594
2972.53140716535	1162.80004882813
2974.69293700897	1163.09997558594
2976.85385263216	1161.59997558594
2979.01415431133	1160.09997558594
2981.17384232278	1162
2983.33291694274	1157
2985.49137844726	1161.69995117188
2987.64922711234	1156.40002441406
2989.8064632138	1158.69995117188
2991.9630870274	1158.30004882813
2994.11909882875	1159.59997558594
2996.27449889334	1158.80004882813
2998.42928749659	1158.59997558594
3000.58346491374	1160
3002.73703141997	1164.09997558594
3004.8899872903	1159.40002441406
3007.04233279965	1159.80004882813
3009.19406822284	1160.80004882813
3011.34519383455	1161.59997558594
3013.49570990936	1157.5
3015.64561672172	1161.30004882813
3017.79491454597	1160.5
3019.94360365632	1163.19995117188
3022.09168432689	1156
3024.23915683165	1158.69995117188
3026.38602144448	1159.30004882813
3028.53227843913	1163.09997558594
3030.67792808923	1157.59997558594
3032.82297066831	1162.30004882813
3034.96740644975	1160
3037.11123570684	1161.40002441406
3039.25445871273	1162.5
3041.39707574049	1158.80004882813
3043.53908706303	1161.80004882813
3045.68049295316	1158.30004882813
3047.82129368358	1159.80004882813
3049.96148952684	1158
3052.1010807554	1160.80004882813
3054.24006764161	1157.69995117188
3056.37845045767	1159.80004882813
3058.51622947568	1157.69995117188
3060.65340496763	1159
3062.78997720535	1159.90002441406
3064.92594646061	1156.69995117188
3067.06131300501	1161.69995117188
3069.19607711007	1159.30004882813
3071.33023904715	1157.40002441406
3073.46379908752	1155.80004882813
3075.59675750233	1162.19995117188
3077.7291145626	1159.30004882813
3079.86087053922	1160.40002441406
3081.99202570299	1156.5
3084.12258032456	1159.80004882813
3086.25253467448	1160.5
3088.38188902317	1156.40002441406
3090.51064364093	1158.19995117188
3092.63879879794	1158.19995117188
3094.76635476428	1161.40002441406
3096.89331180986	1162.30004882813
3099.01967020452	1159.30004882813
3101.14543021796	1160.80004882813
3103.27059211975	1157.59997558594
3105.39515617934	1159.69995117188
3107.51912266608	1159.5
3109.64249184919	1158.40002441406
3111.76526399774	1156.90002441406
3113.88743938072	1160.30004882813
3116.00901826698	1158.5
3118.13000092523	1159.40002441406
3120.2503876241	1160.09997558594
3122.37017863206	1162.09997558594
3124.48937421748	1159.09997558594
3126.6079746486	1160.59997558594
3128.72598019354	1162.30004882813
3130.84339112029	1157.59997558594
3132.96020769673	1159.69995117188
3135.07643019061	1158.19995117188
3137.19205886957	1156.69995117188
3139.3070940011	1158.5
3141.42153585259	1159.30004882813
3143.5353846913	1157.59997558594
3145.64864078438	1155.5
3147.76130439882	1156.59997558594
3149.87337580154	1161.09997558594
3151.98485525929	1159.90002441406
3154.09574303872	1159.30004882813
3156.20603940634	1160.09997558594
3158.31574462857	1156
3160.42485897167	1157.90002441406
3162.53338270181	1157.59997558594
3164.64131608498	1158.19995117188
3166.74865938712	1157.59997558594
3168.85541287398	1159.5
3170.96157681123	1159.30004882813
3173.0671514644	1158
3175.17213709889	1157
3177.27653397998	1157.40002441406
3179.38034237284	1160.59997558594
3181.48356254248	1157
3183.58619475382	1158.59997558594
3185.68823927165	1159
3187.78969636061	1161.40002441406
3189.89056628524	1158.5
3191.99084930995	1160
3194.09054569901	1158.80004882813
3196.18965571659	1158.59997558594
3198.28817962671	1158.59997558594
3200.38611769327	1157.09997558594
3202.48347018006	1157.19995117188
3204.58023735073	1158.40002441406
3206.67641946881	1159.19995117188
3208.77201679769	1159.19995117188
3210.86702960065	1157.80004882813
3212.96145814084	1160
3215.05530268128	1158
3217.14856348487	1160.59997558594
3219.24124081437	1158.5
3221.33333493243	1158
3223.42484610157	1155.40002441406
3225.51577458416	1160.80004882813
3227.60612064247	1155.30004882813
3229.69588453864	1156.69995117188
3231.78506653466	1156.30004882813
3233.87366689244	1161.40002441406
3235.9616858737	1156.59997558594
3238.04912374008	1158.5
3240.13598075307	1159.59997558594
3242.22225717405	1159.59997558594
3244.30795326425	1155.40002441406
3246.39306928479	1156
3248.47760549664	1157.30004882813
3250.56156216068	1156.69995117188
3252.64493953762	1156.90002441406
3254.72773788807	1157.30004882813
3256.8099574725	1160.40002441406
3258.89159855124	1158.69995117188
3260.97266138451	1154
3263.05314623241	1157.80004882813
3265.13305335488	1157.59997558594
3267.21238301175	1158.90002441406
3269.29113546272	1156.90002441406
3271.36931096736	1157.30004882813
3273.4469097851	1156.69995117188
3275.52393217526	1159.5
3277.60037839702	1160.19995117188
3279.67624870941	1159.19995117188
3281.75154337138	1158.90002441406
3283.8262626417	1158.40002441406
3285.90040677904	1158.90002441406
3287.97397604193	1159.40002441406
3290.04697068876	1157.80004882813
3292.11939097781	1158.19995117188
3294.19123716721	1157.5
3296.26250951497	1157.90002441406
3298.33320827897	1155.69995117188
3300.40333371696	1158.30004882813
3302.47288608655	1158.59997558594
3304.54186564524	1155.90002441406
3306.61027265036	1156.5
3308.67810735915	1159.19995117188
3310.74537002869	1158.09997558594
3312.81206091594	1157.69995117188
3314.87818027774	1156.09997558594
3316.94372837077	1158.30004882813
3319.00870545161	1159.19995117188
3321.07311177668	1159.19995117188
3323.13694760229	1158.59997558594
3325.2002131846	1158.59997558594
3327.26290877964	1160.40002441406
3329.32503464334	1155.90002441406
3331.38659103145	1157.5
3333.4475781996	1155.90002441406
3335.50799640332	1159.90002441406
3337.56784589797	1155.30004882813
3339.62712693879	1159.30004882813
3341.68583978089	1158.90002441406
3343.74398467924	1159.09997558594
3345.80156188869	1156
3347.85857166394	1156.90002441406
3349.91501425956	1157.30004882813
3351.97088992999	1159.40002441406
3354.02619892956	1158.80004882813
3356.0809415124	1159.90002441406
3358.13511793259	1156.90002441406
3360.18872844401	1157.69995117188
3362.24177330044	1157.69995117188
3364.29425275552	1158.69995117188
3366.34616706274	1160.59997558594
3368.39751647548	1160.69995117188
3370.44830124696	1160
3372.49852163029	1156.90002441406
3374.54817787843	1158.19995117188
3376.5972702442	1156.5
3378.64579898031	1156.69995117188
3380.69376433931	1156.59997558594
3382.74116657361	1157.30004882813
3384.78800593552	1160.19995117188
3386.83428267718	1154.30004882813
3388.8799970506	1155.69995117188
3390.92514930767	1155.59997558594
3392.96973970014	1157.90002441406
3395.01376847962	1157.90002441406
3397.05723589757	1155.40002441406
3399.10014220533	1158
3401.1424876541	1158.30004882813
3403.18427249495	1155.59997558594
3405.22549697881	1157.90002441406
3407.26616135646	1155.59997558594
3409.30626587856	1157.40002441406
3411.34581079563	1156
3413.38479635805	1158.69995117188
3415.42322281605	1156.30004882813
3417.46109041976	1154.90002441406
3419.49839941912	1155.40002441406
3421.53515006399	1156.5
3423.57134260405	1156.40002441406
3425.60697728886	1156.40002441406
3427.64205436783	1159.90002441406
3429.67657409025	1157.80004882813
3431.71053670525	1155.80004882813
3433.74394246185	1155
3435.77679160891	1157.40002441406
3437.80908439515	1157
3439.84082106917	1156.30004882813
3441.87200187943	1157.09997558594
3443.90262707421	1157.30004882813
3445.93269690172	1155
3447.96221160996	1156.90002441406
3449.99117144686	1158.69995117188
3452.01957666015	1156.59997558594
3454.04742749746	1155.19995117188
3456.07472420626	1155.90002441406
3458.1014670339	1155.69995117188
3460.12765622756	1154.19995117188
3462.15329203432	1155.19995117188
3464.17837470108	1155.5
3466.20290447463	1159.59997558594
3468.22688160161	1153.30004882813
3470.25030632851	1155.59997558594
3472.2731789017	1154.80004882813
3474.29549956739	1156.90002441406
3476.31726857166	1157.5
3478.33848616045	1157.5
3480.35915257955	1155.19995117188
3482.37926807462	1156.19995117188
3484.39883289117	1157.09997558594
3486.41784727458	1154.5
3488.43631147007	1155.90002441406
3490.45422572275	1157.40002441406
3492.47159027755	1155.5
3494.4884053793	1156.30004882813
3496.50467127263	1153.80004882813
3498.5203882021	1157.30004882813
3500.53555641208	1156.5
3502.5501761468	1155.19995117188
3504.56424765036	1155.19995117188
3506.57777116674	1155
3508.59074693973	1156.19995117188
3510.603175213	1155.80004882813
3512.61505623009	1154.40002441406
3514.62639023438	1158.80004882813
3516.63717746911	1158
3518.64741817739	1155.40002441406
3520.65711260216	1156.19995117188
3522.66626098625	1156.69995117188
3524.67486357232	1154.69995117188
3526.6829206029	1155.80004882813
3528.69043232037	1153.5
3530.69739896698	1154.59997558594
3532.70382078481	1154.90002441406
3534.70969801583	1156.80004882813
3536.71503090183	1156.30004882813
3538.71981968447	1154.5
3540.72406460529	1156
3542.72776590566	1154.59997558594
3544.7309238268	1156.19995117188
3546.7335386098	1157.09997558594
3548.7356104956	1155.90002441406
3550.737139725	1152.80004882813
3552.73812653866	1154.30004882813
3554.73857117706	1156.5
3556.73847388059	1159.69995117188
3558.73783488944	1154.69995117188
3560.7366544437	1155
3562.73493278328	1155.19995117188
3564.73267014797	1152.90002441406
3566.7298667774	1157.69995117188
3568.72652291106	1153.40002441406
3570.72263878828	1154.30004882813
3572.71821464827	1154.30004882813
3574.71325073007	1158.5
3576.70774727257	1154.19995117188
3578.70170451455	1153.59997558594
3580.6951226946	1153.69995117188
3582.68800205121	1152.59997558594
3584.68034282266	1154.30004882813
3586.67214524714	1156.19995117188
3588.66340956266	1156
3590.6541360071	1152.19995117188
3592.6443248182	1155.40002441406
3594.63397623352	1156.5
3596.6230904905	1154.30004882813
3598.61166782642	1156
3600.59970847842	1155.59997558594
3602.58721268348	1154.5
3604.57418067846	1156
3606.56061270003	1154.19995117188
3608.54650898475	1154.69995117188
3610.53186976901	1153.40002441406
3612.51669528905	1154.90002441406
3614.50098578098	1155.19995117188
3616.48474148074	1158
3618.46796262413	1156
3620.45064944681	1153.30004882813
3622.43280218428	1153.90002441406
3624.41442107188	1153.19995117188
3626.39550634484	1155.69995117188
3628.37605823819	1153.5
3630.35607698685	1156.69995117188
3632.33556282556	1156.59997558594
3634.31451598894	1154.30004882813
3636.29293671143	1156.09997558594
3638.27082522735	1155.30004882813
3640.24818177084	1152.69995117188
3642.22500657592	1155.5
3644.20129987644	1155.19995117188
3646.17706190608	1155.09997558594
3648.15229289843	1152.80004882813
3650.12699308687	1156.5
3652.10116270465	1153.69995117188
3654.07480198488	1152.5
3656.04791116049	1152.80004882813
3658.02049046431	1158
3659.99254012895	1156
3661.96406038692	1152.30004882813
3663.93505147056	1155
3665.90551361207	1155
3667.87544704349	1153.69995117188
3669.84485199668	1153.59997558594
3671.81372870341	1152.19995117188
3673.78207739523	1154.59997558594
3675.7498983036	1152.40002441406
3677.71719165977	1155.30004882813
3679.68395769488	1156.69995117188
3681.65019663991	1153.5
3683.61590872567	1155.69995117188
3685.58109418282	1155.59997558594
3687.54575324187	1154.5
3689.5098861332	1152
3691.473493087	1154.5
3693.43657433333	1152.59997558594
3695.39913010208	1153.90002441406
3697.36116062301	1154.19995117188
3699.32266612569	1152.30004882813
3701.28364683959	1155.80004882813
3703.24410299397	1153.30004882813
3705.20403481795	1154.80004882813
3707.16344254053	1156.30004882813
3709.12232639052	1154.69995117188
3711.08068659659	1152.19995117188
3713.03852338724	1155.09997558594
3714.99583699084	1154.80004882813
3716.95262763558	1153.59997558594
3718.90889554951	1153.90002441406
3720.86464096053	1151.30004882813
3722.81986409636	1154.90002441406
3724.7745651846	1152.90002441406
3726.72874445265	1150.90002441406
3728.6824021278	1154.80004882813
3730.63553843715	1152.59997558594
3732.58815360767	1154.19995117188
3734.54024786615	1153.19995117188
3736.49182143924	1151.69995117188
3738.44287455343	1153.30004882813
3740.39340743505	1155
3742.34342031027	1154.80004882813
3744.29291340513	1152.40002441406
3746.24188694546	1157.30004882813
3748.190341157	1153.09997558594
3750.13827626527	1152.69995117188
3752.08569249567	1153
3754.03259007345	1155.30004882813
3755.97896922367	1152.90002441406
3757.92483017124	1154.80004882813
3759.87017314094	1153.5
3761.81499835737	1152.80004882813
3763.75930604498	1152.5
3765.70309642803	1152.19995117188
3767.64636973068	1151.30004882813
3769.58912617689	1155.09997558594
3771.53136599047	1151.30004882813
3773.47308939509	1154.90002441406
3775.41429661421	1153
