-174.488245116115	1147.09997558594
-171.353866679816	1149.69995117188
-168.22051297009	1146
-165.088183560586	1145.19995117188
-161.956878025242	1149
-158.826595938226	1145.90002441406
-155.697336873968	1146.40002441406
-152.569100407157	1149.19995117188
-149.441886112741	1149.5
-146.315693565896	1148.69995117188
-143.190522342091	1148.5
-140.066372017002	1145.80004882813
-136.943242166608	1146.80004882813
-133.82113236709	1148.59997558594
-130.7000421949	1148.59997558594
-127.579971226752	1147.90002441406
-124.46091903959	1147.59997558594
-121.342885210617	1148.09997558594
-118.225869317289	1146.69995117188
-115.109870937295	1149.40002441406
-111.994889648578	1148.5
-108.880925029339	1146.69995117188
-105.767976658009	1148.30004882813
-102.656044113272	1147.80004882813
-99.5451269740494	1149
-96.4352248195329	1147.69995117188
-93.3263372291173	1149.90002441406
-90.2184637824824	1150.40002441406
-87.1116040595153	1148.59997558594
-84.0057576403752	1149.59997558594
-80.9009241054446	1149.19995117188
-77.7971030353455	1146.09997558594
-74.6942940109553	1147.19995117188
-71.5924966133822	1149.80004882813
-68.4917104239774	1148.90002441406
-65.3919350243307	1150.19995117188
-62.2931699962624	1146.69995117188
-59.1954149218515	1150.09997558594
-56.0986693833866	1146.40002441406
-53.0029329634189	1150.19995117188
-49.908205244721	1149.40002441406
-46.8144858103075	1146.80004882813
-43.7217742434262	1149.59997558594
-40.6300701275667	1147.30004882813
-37.5393730464434	1149.40002441406
-34.4496825840078	1147.90002441406
-31.3609983244403	1147.90002441406
-28.273319852166	1149.59997558594
-25.1866467518426	1146.80004882813
-22.10097860834	1149.09997558594
-19.0163150067886	1148.19995117188
-15.9326555325185	1147.40002441406
-12.8499997711119	1148
-9.76834730837485	1150.30004882813
-6.68769773034879	1149
-3.60805062329064	1149.59997558594
-0.529405573692618	1154
2.54823783170989	1155
5.62488000599066	1151.5
8.70052136196052	1149.90002441406
11.7751623122237	1151.59997558594
14.8488032691459	1149
17.9214446448865	1147.59997558594
20.9930868513505	1149.69995117188
24.0637303002531	1148.19995117188
27.1333754030514	1148.40002441406
30.2020225710047	1147.59997558594
33.2696722151428	1147.5
36.3363247462699	1147.69995117188
39.401980574957	1148.59997558594
42.4666401115817	1148.80004882813
45.5303037662728	1147.19995117188
48.5929719489461	1146.80004882813
51.6546450693084	1146.59997558594
54.7153235368463	1149.30004882813
57.7750077608055	1147.80004882813
60.8336981502356	1147.80004882813
63.891395113966	1148.09997558594
66.9480990605899	1147.30004882813
70.0038103985047	1151
73.0585295358718	1153.09997558594
76.112256880665	1159.5
79.1649928406108	1191.19995117188
82.21673782324	1280
85.2674922358484	1406.09997558594
88.3172564855524	1495.09997558594
91.3660309792176	1545.90002441406
94.4138161235146	1560.30004882813
97.4606123248875	1574.69995117188
100.506419989605	1585.90002441406
103.551239523679	1583.90002441406
106.595071332926	1579
109.637915822959	1580.40002441406
112.679773399166	1569.69995117188
115.720644466743	1579.09997558594
118.760529430661	1571.5
121.799428695683	1540.5
124.83734266637	1546.69995117188
127.874271747074	1535.90002441406
130.910216341928	1539
133.945176854874	1530.80004882813
136.979153689627	1527
140.012147249714	1517.59997558594
143.044157938449	1522.09997558594
146.075186158938	1518
149.105232314081	1516.19995117188
152.134296806573	1518.5
155.162380038908	1505.80004882813
158.189482413382	1519.09997558594
161.215604332062	1506.5
164.240746196836	1505
167.264908409388	1498.5
170.288091371194	1512.80004882813
173.310295483525	1507.59997558594
176.331521147454	1500.19995117188
179.351768763859	1511.19995117188
182.3710387334	1500.40002441406
185.389331456545	1509.59997558594
188.40664733357	1498.90002441406
191.422986764561	1514.80004882813
194.438350149375	1498.19995117188
197.452737887679	1511.90002441406
200.466150378974	1496.5
203.478588022515	1506.69995117188
206.490051217389	1491.40002441406
209.500540362482	1514.59997558594
212.510055856486	1514.59997558594
215.51859809788	1508.09997558594
218.526167484984	1521.90002441406
221.532764415869	1523.5
224.538389288469	1531.59997558594
227.543042500475	1528.09997558594
230.546724449419	1532.59997558594
233.549435532609	1542.59997558594
236.551176147184	1553.69995117188
239.551946690085	1559.69995117188
242.551747558066	1555
245.55057914767	1542.59997558594
248.548441855258	1559.19995117188
251.545336077006	1544.59997558594
254.541262208898	1560.90002441406
257.536220646712	1555.30004882813
260.53021178606	1568.40002441406
263.523236022356	1573.59997558594
266.515293750805	1565.90002441406
269.506385366465	1570.5
272.496511264158	1560.19995117188
275.485671838549	1591.5
278.473867484101	1587.09997558594
281.461098595114	1587.40002441406
284.44736556567	1590.90002441406
287.432668789673	1601.59997558594
290.417008660864	1622
293.400385572757	1605.59997558594
296.382799918725	1628.59997558594
299.364252091929	1664.40002441406
302.344742485338	1658
305.324271491768	1665
308.302839503825	1636.40002441406
311.280446913945	1631
314.257094114377	1617.09997558594
317.23278149719	1590.59997558594
320.207509454258	1598.5
323.181278377283	1562.09997558594
326.154088657796	1572
329.125940687134	1568.80004882813
332.096834856454	1565.59997558594
335.066771556737	1571.09997558594
338.035751178774	1546.59997558594
341.003774113189	1560.5
343.97084075043	1545.80004882813
346.936951480745	1559.40002441406
349.902106694219	1544.19995117188
352.866306780769	1554.19995117188
355.82955213011	1550.5
358.791843131792	1541.30004882813
361.753180175185	1534.59997558594
364.713563649499	1549.5
367.672993943731	1537.19995117188
370.631471446741	1531.80004882813
373.588996547206	1517.40002441406
376.545569633593	1529.90002441406
379.501191094236	1538.69995117188
382.45586131727	1526.30004882813
385.409580690674	1522.09997558594
388.362349602236	1512.90002441406
391.314168439577	1516.90002441406
394.265037590153	1512.90002441406
397.214957441235	1511.59997558594
400.16392837993	1508.69995117188
403.111950793165	1517.19995117188
406.059025067691	1514.80004882813
409.005151590118	1517.90002441406
411.950330746855	1513.80004882813
414.894562924143	1508.69995117188
417.837848508063	1509
420.780187884513	1521.90002441406
423.721581439244	1523.80004882813
426.662029557819	1523.69995117188
429.601532625628	1526.80004882813
432.540091027909	1532.69995117188
435.477705149715	1523
438.414375375956	1515.5
441.350102091341	1515.69995117188
444.284885680439	1503.5
447.218726527646	1495.80004882813
450.151625017169	1476.69995117188
453.083581533085	1492.40002441406
456.014596459275	1486.19995117188
458.94467017946	1478.19995117188
461.87380307723	1483.90002441406
464.801995535963	1476.40002441406
467.72924793888	1485.5
470.655560669072	1496.90002441406
473.580934109433	1482.5
476.505368642699	1514.19995117188
479.42886465145	1496.80004882813
482.351422518103	1529.59997558594
485.273042624905	1505
488.193725353949	1526.59997558594
491.113471087159	1544
494.032280206301	1566.09997558594
496.950153092974	1581.59997558594
499.867090128629	1626.80004882813
502.783091694533	1701.80004882813
505.698158171827	1837.09997558594
508.612289941456	2077.30004882813
511.525487384225	2759.89990234375
514.43775088078	4869.7001953125
517.3490808116	9552.599609375
520.259477557008	12161.5
523.168941497168	8734.2998046875
526.077473012083	5015
528.98507248161	3262.10009765625
531.891740285434	2485.30004882813
534.797476803086	2098.39990234375
537.702282413949	1892.40002441406
540.606157497241	1780.80004882813
543.509102432012	1695.30004882813
546.411117597179	1643.40002441406
549.312203371496	1615.30004882813
552.212360133551	1581.30004882813
555.111588261787	1557.09997558594
558.009888134493	1534.19995117188
560.907260129786	1529
563.803704625648	1530.80004882813
566.699221999907	1519.5
569.593812630219	1507.30004882813
572.487476894111	1496.40002441406
575.380215168932	1504.59997558594
578.272027831898	1501.09997558594
581.162915260056	1491.80004882813
584.052877830319	1491
586.941915919431	1491.80004882813
589.830029903984	1491.80004882813
592.717220160442	1482.09997558594
595.603487065095	1480.5
598.488830994078	1486.5
601.373252323396	1505.5
604.256751428889	1498.80004882813
607.139328686265	1485.59997558594
610.020984471038	1520.40002441406
612.90171915863	1510.30004882813
615.781533124278	1505.80004882813
618.660426743072	1513
621.538400389971	1508.09997558594
624.415454439761	1513.40002441406
627.291589267105	1510.69995117188
630.166805246513	1498.69995117188
633.041102752313	1497.30004882813
635.914482158742	1500.5
638.786943839845	1500.90002441406
641.658488169547	1499.90002441406
644.529115521603	1481.80004882813
647.398826269641	1497.90002441406
650.267620787151	1506.09997558594
653.135499447438	1502.5
656.002462623708	1506.19995117188
658.868510688984	1509.30004882813
661.733644016172	1507.80004882813
664.59786297802	1508.5
667.461167947139	1513.80004882813
670.32355929598	1501.59997558594
673.185037396862	1501.80004882813
676.045602621965	1503.69995117188
678.905255343306	1509.59997558594
681.763995932795	1500.69995117188
684.621824762164	1485.30004882813
687.47874220302	1481.30004882813
690.334748626818	1478.90002441406
693.189844404876	1481.30004882813
696.044029908375	1482.5
698.897305508341	1475.30004882813
701.749671575677	1483
704.601128481138	1475.19995117188
707.451676595324	1474.80004882813
710.301316288718	1472.80004882813
713.150047931639	1473.40002441406
715.997871894292	1470.69995117188
718.844788546713	1465.5
721.690798258824	1472.69995117188
724.535901400393	1462
727.380098341057	1475
730.223389450309	1463
733.065775097502	1464.90002441406
735.907255651861	1470.40002441406
738.747831482461	1463.69995117188
741.587502958238	1460.90002441406
744.426270448005	1473.59997558594
747.264134320431	1478.09997558594
750.101094944034	1474.19995117188
752.937152687221	1469.40002441406
755.772307918238	1481.59997558594
758.606561005211	1486.5
761.439912316121	1482
764.272362218816	1479.40002441406
767.103911081018	1487.09997558594
769.934559270291	1479.19995117188
772.764307154079	1487.59997558594
775.593155099695	1488
778.42110347431	1489.59997558594
781.248152644956	1476.80004882813
784.074302978539	1487.09997558594
786.899554841832	1474.59997558594
789.723908601474	1481.30004882813
792.547364623949	1489.5
795.369923275648	1491.90002441406
798.191584922798	1481.09997558594
801.012349931499	1488.90002441406
803.832218667714	1494.30004882813
806.651191497303	1491.80004882813
809.469268785944	1486.69995117188
812.286450899232	1499.69995117188
815.1027382026	1500.19995117188
817.918131061357	1498.59997558594
820.73262984068	1497.69995117188
823.546234905624	1507.40002441406
826.358946621095	1504.30004882813
829.170765351889	1500.69995117188
831.981691462663	1506.59997558594
834.791725317936	1503.69995117188
837.600867282103	1507.40002441406
840.409117719429	1516.40002441406
843.216476994053	1508.59997558594
846.022945469989	1500.40002441406
848.828523511098	1506.19995117188
851.633211481134	1513.90002441406
854.437009743721	1514.90002441406
857.239918662353	1519.80004882813
860.041938600383	1513.90002441406
862.843069921057	1520.5
865.643312987472	1525.09997558594
868.442668162604	1516.90002441406
871.241135809316	1513.19995117188
874.038716290324	1507.90002441406
876.835409968233	1514.19995117188
879.63121720551	1519.80004882813
882.426138364494	1518.5
885.22017380741	1525.19995117188
888.013323896339	1518.69995117188
890.805588993253	1515.69995117188
893.596969459993	1501.5
896.387465658265	1513.30004882813
899.177077949666	1512.19995117188
901.965806695649	1507.69995117188
904.75365225756	1516
907.540614996601	1535.09997558594
910.326695273873	1524.5
913.111893450328	1534.90002441406
915.896209886813	1520.5
918.679644944044	1539.5
921.462198982604	1538.40002441406
924.243872362968	1556.59997558594
927.02466544548	1598.59997558594
929.804578590358	1632
932.583612157696	1715.09997558594
935.361766507473	1747.30004882813
938.13904199954	1808.69995117188
940.915438993633	1853.69995117188
943.690957849354	1871.5
946.465598926189	1853.5
949.239362583496	1878.59997558594
952.012249180518	1862.90002441406
954.784259076376	1888
957.555392630071	1882.59997558594
960.325650200475	1873.40002441406
963.09503214635	1885.30004882813
965.863538826323	1880
968.631170598912	1874
971.397927822515	1897.90002441406
974.163810855393	1896.19995117188
976.928820055712	1907.5
979.692955781498	1891.90002441406
982.456218390671	1901.19995117188
985.218608241021	1854.40002441406
987.980125690221	1789.69995117188
990.740771095826	1754.19995117188
993.500544815275	1695.90002441406
996.259447205875	1667.19995117188
999.017478624842	1665.40002441406
1001.77463942924	1623.90002441406
1004.53092997605	1606.69995117188
1007.28635062209	1603.5
1010.0409017241	1597.19995117188
1012.79458363868	1585.59997558594
1015.54739672233	1568.59997558594
1018.29934133142	1563.30004882813
1021.05041782219	1561.90002441406
1023.8006265508	1549.69995117188
1026.54996787325	1556.40002441406
1029.29844214545	1548.90002441406
1032.0460497232	1536.30004882813
1034.79279096215	1540.09997558594
1037.53866621786	1517.30004882813
1040.28367584578	1527.69995117188
1043.02782020123	1510.19995117188
1045.7710996394	1503.69995117188
1048.51351451539	1502.80004882813
1051.25506518417	1534
1053.99575200061	1519.09997558594
1056.73557531945	1515.19995117188
1059.4745354953	1516.90002441406
1062.2126328827	1519.80004882813
1064.94986783605	1517.5
1067.68624070961	1518.5
1070.42175185757	1528.59997558594
1073.15640163398	1504.19995117188
1075.89019039278	1523.90002441406
1078.6231184878	1525.90002441406
1081.35518627276	1531.30004882813
1084.08639410125	1536
1086.81674232676	1537.5
1089.54623130267	1526.19995117188
1092.27486138224	1541.90002441406
1095.00263291861	1541.5
1097.72954626482	1543.80004882813
1100.45560177378	1534.90002441406
1103.18079979831	1538.40002441406
1105.90514069112	1536.30004882813
1108.62862480477	1540.40002441406
1111.35125249175	1542.80004882813
1114.07302410441	1533.90002441406
1116.793939995	1535.90002441406
1119.51400051566	1552.5
1122.23320601841	1539.69995117188
1124.95155685517	1548.59997558594
1127.66905337774	1558.09997558594
1130.38569593782	1550.09997558594
1133.10148488697	1559.59997558594
1135.81642057667	1551.19995117188
1138.53050335829	1551.30004882813
1141.24373358306	1561.09997558594
1143.95611160214	1560.59997558594
1146.66763776654	1568.80004882813
1149.37831242718	1558.90002441406
1152.08813593487	1575.09997558594
1154.7971086403	1559.19995117188
1157.50523089408	1568.30004882813
1160.21250304667	1579.19995117188
1162.91892544844	1584.30004882813
1165.62449844965	1578.09997558594
1168.32922240045	1579.09997558594
1171.0330976509	1573.40002441406
1173.73612455091	1585.40002441406
1176.43830345031	1585.09997558594
1179.13963469882	1595.5
1181.84011864604	1592.90002441406
1184.53975564147	1577.5
1187.23854603451	1598.40002441406
1189.93649017442	1609
1192.63358841039	1593
1195.32984109149	1592
1198.02524856667	1597
1200.71981118478	1599.09997558594
1203.41352929457	1598.90002441406
1206.10640324467	1614.30004882813
1208.79843338361	1624.09997558594
1211.48962005981	1619.59997558594
1214.17996362159	1626.30004882813
1216.86946441716	1627.19995117188
1219.55812279461	1632.90002441406
1222.24593910194	1628.90002441406
1224.93291368704	1627.30004882813
1227.61904689769	1628.40002441406
1230.30433908157	1630.90002441406
1232.98879058625	1639.30004882813
1235.67240175918	1650
1238.35517294773	1640.90002441406
1241.03710449915	1642.40002441406
1243.71819676058	1669.5
1246.39845007907	1659.90002441406
1249.07786480155	1660
1251.75644127485	1659.59997558594
1254.43417984571	1674.80004882813
1257.11108086072	1674.09997558594
1259.78714466643	1654.90002441406
1262.46237160921	1673.90002441406
1265.1367620354	1678.5
1267.81031629118	1666.09997558594
1270.48303472266	1675.5
1273.15491767583	1692.30004882813
1275.82596549657	1704.09997558594
1278.49617853067	1689.90002441406
1281.16555712381	1699.40002441406
1283.83410162156	1700.90002441406
1286.50181236939	1702.30004882813
1289.16868971269	1722.30004882813
1291.8347339967	1711.30004882813
1294.49994556659	1715.30004882813
1297.16432476743	1727.69995117188
1299.82787194415	1727
1302.49058744163	1750.40002441406
1305.15247160459	1750.90002441406
1307.81352477769	1750.5
1310.47374730548	1758
1313.1331395324	1772.90002441406
1315.79170180277	1794.40002441406
1318.44943446083	1803.40002441406
1321.10633785073	1823.69995117188
1323.76241231648	1832.69995117188
1326.41765820202	1836.30004882813
1329.07207585117	1880.09997558594
1331.72566560766	1879.69995117188
1334.3784278151	1924.80004882813
1337.03036281703	1950.80004882813
1339.68147095686	1948
1342.33175257789	1946
1344.98120802335	1966.59997558594
1347.62983763636	1952.69995117188
1350.27764175994	1926.90002441406
1352.92462073697	1917.5
1355.57077491028	1877.59997558594
1358.21610462259	1874.80004882813
1360.86061021649	1853.69995117188
1363.50429203449	1824.09997558594
1366.14715041901	1827.80004882813
1368.78918571234	1797
1371.4303982567	1794.19995117188
1374.07078839419	1791.5
1376.71035646681	1779
1379.34910281647	1803.69995117188
1381.98702778498	1765
1384.62413171402	1773.59997558594
1387.26041494523	1753.09997558594
1389.89587782008	1748.90002441406
1392.53052068001	1760.59997558594
1395.16434386629	1739.59997558594
1397.79734772015	1741
1400.42953258269	1733.09997558594
1403.0608987949	1740.80004882813
1405.69144669771	1724.80004882813
1408.32117663193	1728.5
1410.95008893825	1724.5
1413.57818395728	1722.40002441406
1416.20546202954	1725.40002441406
1418.83192349543	1718.40002441406
1421.45756869528	1726.30004882813
1424.08239796929	1723
1426.70641165757	1730.69995117188
1429.32961010016	1728.09997558594
1431.95199363695	1732.90002441406
1434.57356260778	1732.19995117188
1437.19431735237	1719
1439.81425821033	1724.59997558594
1442.43338552118	1718.40002441406
1445.05169962437	1722.09997558594
1447.66920085921	1728.90002441406
1450.28588956493	1724.5
1452.90176608067	1714.30004882813
1455.51683074547	1725.30004882813
1458.13108389825	1727.90002441406
1460.74452587786	1714.90002441406
1463.35715702303	1712
1465.96897767243	1705.40002441406
1468.57998816457	1723.19995117188
1471.19018883794	1707.59997558594
1473.79958003086	1718.90002441406
1476.4081620816	1714.40002441406
1479.01593532831	1713
1481.62290010905	1731.19995117188
1484.22905676179	1728.40002441406
1486.83440562438	1724.90002441406
1489.43894703461	1721.80004882813
1492.04268133016	1721.90002441406
1494.64560884857	1750.5
1497.24772992735	1731.5
1499.84904490388	1733.19995117188
1502.44955411543	1748.19995117188
1505.0492578992	1734.90002441406
1507.64815659229	1742.40002441406
1510.24625053168	1754
1512.84354005429	1769.69995117188
1515.44002549691	1763.90002441406
1518.03570719625	1777.59997558594
1520.63058548894	1783.5
1523.22466071147	1775.90002441406
1525.81793320028	1792.69995117188
1528.41040329169	1800
1531.00207132192	1809.69995117188
1533.59293762712	1810.5
1536.18300254332	1808
1538.77226640645	1828.19995117188
1541.36072955237	1855.09997558594
1543.94839231684	1880.19995117188
1546.53525503548	1889.90002441406
1549.12131804389	1940.09997558594
1551.70658167752	1951.90002441406
1554.29104627173	2011.19995117188
1556.87471216181	2083.5
1559.45757968292	2141.80004882813
1562.03964917017	2241.5
1564.62092095853	2310.19995117188
1567.2013953829	2466.80004882813
1569.78107277808	2598.89990234375
1572.35995347877	2746.80004882813
1574.93803781959	2879.19995117188
1577.51532613504	2970.60009765625
1580.09181875956	2963.69995117188
1582.66751602746	2874.19995117188
1585.24241827297	2722.5
1587.81652583024	2534.80004882813
1590.3898390333	2416.80004882813
1592.96235821611	2298.30004882813
1595.53408371251	2183.39990234375
1598.10501585628	2104.5
1600.67515498106	2056.60009765625
1603.24450142043	2010.19995117188
1605.81305550788	1970.69995117188
1608.38081757677	1965.40002441406
1610.9477879604	1912.59997558594
1613.51396699198	1914.90002441406
1616.07935500458	1894.40002441406
1618.64395233122	1871.19995117188
1621.20775930483	1836.40002441406
1623.7707762582	1813
1626.33300352408	1777.19995117188
1628.89444143508	1764.5
1631.45509032376	1738.30004882813
1634.01495052255	1723.59997558594
1636.5740223638	1699
1639.13230617978	1689.5
1641.68980230264	1665.40002441406
1644.24651106446	1657.59997558594
1646.80243279721	1654.19995117188
1649.35756783278	1642
1651.91191650296	1632.5
1654.46547913944	1637.5
1657.01825607383	1620.5
1659.57024763764	1604
1662.12145416229	1619.30004882813
1664.6718759791	1596.19995117188
1667.2215134193	1589.5
1669.77036681404	1596.09997558594
1672.31843649435	1596.09997558594
1674.8657227912	1589.90002441406
1677.41222603543	1589.69995117188
1679.95794655782	1588.40002441406
1682.50288468904	1579.59997558594
1685.04704075968	1569.80004882813
1687.59041510022	1579.90002441406
1690.13300804106	1577.40002441406
1692.67481991249	1568.09997558594
1695.21585104474	1573.59997558594
1697.75610176791	1568.5
1700.29557241205	1576.90002441406
1702.83426330707	1564.19995117188
1705.37217478282	1553.5
1707.90930716905	1565.40002441406
1710.44566079541	1555.30004882813
1712.98123599146	1563.69995117188
1715.51603308669	1563.19995117188
1718.05005241045	1544.19995117188
1720.58329429205	1561.69995117188
1723.11575906067	1549.40002441406
1725.64744704542	1550.30004882813
1728.17835857532	1545.19995117188
1730.70849397927	1551.5
1733.2378535861	1555.30004882813
1735.76643772453	1557
1738.29424672323	1563
1740.82128091074	1567.40002441406
1743.3475406155	1549.80004882813
1745.87302616589	1531.5
1748.39773789019	1559.40002441406
1750.92167611656	1555.5
1753.44484117311	1546.09997558594
1755.96723338783	1552.69995117188
1758.48885308862	1558.30004882813
1761.00970060331	1554
1763.52977625961	1550.30004882813
1766.04908038514	1558.19995117188
1768.56761330746	1543.69995117188
1771.08537535401	1543
1773.60236685214	1548.40002441406
1776.11858812912	1557.5
1778.63403951211	1535.69995117188
1781.14872132821	1554.90002441406
1783.6626339044	1538.5
1786.17577756757	1549.69995117188
1788.68815264454	1544.09997558594
1791.199759462	1541.09997558594
1793.7105983466	1543.19995117188
1796.22066962486	1548.5
1798.72997362322	1533.09997558594
1801.23851066803	1545.69995117188
1803.74628108554	1533.30004882813
1806.25328520193	1533.59997558594
1808.75952334326	1546.69995117188
1811.2649958355	1549.19995117188
1813.76970300458	1550.5
1816.27364517628	1540.90002441406
1818.77682267629	1544.30004882813
1821.27923583026	1537.5
1823.78088496369	1531.40002441406
1826.28177040204	1540
1828.78189247064	1538.69995117188
1831.28125149473	1544.59997558594
1833.77984779949	1535.40002441406
1836.27768170998	1523.69995117188
1838.77475355119	1543.69995117188
1841.271063648	1549.59997558594
1843.76661232521	1551.5
1846.26139990751	1544.90002441406
1848.75542671954	1530.19995117188
1851.2486930858	1546.09997558594
1853.74119933074	1544
1856.23294577869	1529.5
1858.72393275391	1548.5
1861.21416058054	1543
1863.70362958267	1550.40002441406
1866.19234008426	1538.69995117188
1868.6802924092	1547.40002441406
1871.16748688129	1538.80004882813
1873.65392382424	1546.09997558594
1876.13960356164	1548.90002441406
1878.62452641704	1548.30004882813
1881.10869271384	1543.90002441406
1883.59210277541	1547.80004882813
1886.07475692498	1555.40002441406
1888.55665548571	1547
1891.03779878067	1537.09997558594
1893.51818713284	1545.19995117188
1895.99782086509	1550.59997558594
1898.47670030024	1547.80004882813
1900.95482576096	1533
1903.43219756989	1530.90002441406
1905.90881604954	1531
1908.38468152235	1549.80004882813
1910.85979431064	1523.69995117188
1913.33415473668	1525.09997558594
1915.80776312261	1539.59997558594
1918.28061979051	1527.90002441406
1920.75272506234	1541.5
1923.22407926001	1542.5
1925.69468270529	1548.40002441406
1928.16453571989	1535.09997558594
1930.63363862544	1538.69995117188
1933.10199174344	1538.19995117188
1935.56959539533	1521.59997558594
1938.03644990244	1522
1940.50255558603	1516.19995117188
1942.96791276726	1528.90002441406
1945.43252176718	1530.19995117188
1947.8963829068	1539
1950.35949650697	1524.69995117188
1952.8218628885	1531.09997558594
1955.2834823721	1530.30004882813
1957.74435527836	1521.69995117188
1960.20448192784	1525.30004882813
1962.66386264093	1531.90002441406
1965.12249773799	1543
1967.58038753927	1540.30004882813
1970.03753236493	1526.19995117188
1972.49393253504	1531.80004882813
1974.94958836957	1531.59997558594
1977.4045001884	1524.40002441406
1979.85866831133	1535.90002441406
1982.31209305807	1534.40002441406
1984.76477474823	1539.09997558594
1987.21671370133	1538.5
1989.6679102368	1524.30004882813
1992.11836467399	1538.90002441406
1994.56807733213	1533.90002441406
1997.0170485304	1531
1999.46527858786	1538.59997558594
2001.91276782348	1540.80004882813
2004.35951655615	1542.80004882813
2006.80552510467	1539
2009.25079378774	1533.09997558594
2011.69532292397	1539.19995117188
2014.13911283188	1544.30004882813
2016.58216382991	1533.80004882813
2019.02447623639	1523.30004882813
2021.46605036956	1547.40002441406
2023.90688654761	1532.90002441406
2026.34698508858	1522.59997558594
2028.78634631045	1539.19995117188
2031.22497053111	1521.09997558594
2033.66285806835	1539.59997558594
2036.10000923987	1522.40002441406
2038.53642436328	1534.5
2040.97210375611	1514.80004882813
2043.40704773578	1516.5
2045.84125661964	1526.5
2048.27473072492	1540.90002441406
2050.70747036878	1518.09997558594
2053.13947586829	1526.80004882813
2055.57074754041	1524.5
2058.00128570205	1523
2060.43109066998	1516.09997558594
2062.8601627609	1527.19995117188
2065.28850229143	1528.90002441406
2067.71610957807	1527.59997558594
2070.14298493726	1519.19995117188
2072.56912868532	1522.09997558594
2074.99454113851	1535.5
2077.41922261297	1528
2079.84317342476	1528.90002441406
2082.26639388986	1525.40002441406
2084.68888432414	1520.59997558594
2087.1106450434	1523.90002441406
2089.53167636331	1520.59997558594
2091.95197859949	1520.80004882813
2094.37155206745	1512
2096.79039708261	1519.59997558594
2099.20851396029	1511.59997558594
2101.62590301575	1521.69995117188
2104.04256456411	1533.40002441406
2106.45849892045	1517.19995117188
2108.87370639971	1498.69995117188
2111.28818731677	1513
2113.70194198641	1513.80004882813
2116.11497072333	1514.09997558594
2118.52727384211	1513.40002441406
2120.93885165726	1512.69995117188
2123.34970448321	1496.19995117188
2125.75983263425	1505.09997558594
2128.16923642463	1519.90002441406
2130.57791616848	1519
2132.98587217985	1506.69995117188
2135.3931047727	1524.80004882813
2137.79961426089	1525.09997558594
2140.20540095818	1517.40002441406
2142.61046517826	1518
2145.01480723472	1518.40002441406
2147.41842744104	1514.69995117188
2149.82132611063	1514.5
2152.22350355681	1508
2154.62496009279	1519.30004882813
2157.0256960317	1516
2159.42571168658	1515.90002441406
2161.82500737036	1519.40002441406
2164.22358339589	1510.90002441406
2166.62144007595	1527.19995117188
2169.01857772318	1520.40002441406
2171.41499665018	1507.80004882813
2173.81069716942	1524.30004882813
2176.20567959329	1528.59997558594
2178.59994423409	1501.19995117188
2180.99349140402	1523.40002441406
2183.38632141519	1510.59997558594
2185.77843457964	1509
2188.16983120927	1516.09997558594
2190.56051161594	1513.69995117188
2192.95047611139	1512.90002441406
2195.33972500725	1509
2197.72825861511	1518.09997558594
2200.11607724641	1515.59997558594
2202.50318121254	1518.40002441406
2204.88957082477	1523.19995117188
2207.27524639429	1522.09997558594
2209.6602082322	1506.59997558594
2212.0444566495	1500.19995117188
2214.4279919571	1516
2216.81081446582	1512.69995117188
2219.19292448638	1514
2221.57432232942	1514.59997558594
2223.95500830547	1509.19995117188
2226.33498272498	1518.09997558594
2228.7142458983	1516.69995117188
2231.09279813569	1514.09997558594
2233.47063974732	1521.59997558594
2235.84777104327	1510.5
2238.2241923335	1517.5
2240.59990392792	1517.90002441406
2242.97490613632	1513.5
2245.34919926839	1517.90002441406
2247.72278363376	1515.09997558594
2250.09565954192	1503.69995117188
2252.46782730231	1517
2254.83928722425	1517
2257.21003961698	1514.90002441406
2259.58008478963	1500.5
2261.94942305127	1508.09997558594
2264.31805471084	1500.90002441406
2266.68598007721	1511.69995117188
2269.05319945914	1519.40002441406
2271.4197131653	1499.90002441406
2273.78552150427	1506.5
2276.15062478456	1497.69995117188
2278.51502331454	1501.5
2280.87871740252	1511.09997558594
2283.24170735671	1501.40002441406
2285.60399348521	1498.30004882813
2287.96557609605	1514.90002441406
2290.32645549714	1509.19995117188
2292.68663199633	1491.30004882813
2295.04610590133	1508.40002441406
2297.40487751981	1514.90002441406
2299.76294715931	1501.5
2302.12031512727	1503.19995117188
2304.47698173107	1505.5
2306.83294727796	1510
2309.18821207512	1501
2311.54277642963	1512.09997558594
2313.89664064847	1509.09997558594
2316.24980503852	1506.19995117188
2318.6022699066	1501.09997558594
2320.95403555938	1484.5
2323.30510230349	1503.90002441406
2325.65547044542	1502.69995117188
2328.0051402916	1499.19995117188
2330.35411214835	1511.40002441406
2332.7023863219	1514.5
2335.04996311837	1499.09997558594
2337.39684284382	1497.69995117188
2339.74302580418	1506.90002441406
2342.08851230529	1506.69995117188
2344.43330265291	1517
2346.7773971527	1500.40002441406
2349.12079611023	1508
2351.46349983096	1514.40002441406
2353.80550862026	1504.90002441406
2356.14682278342	1502.09997558594
2358.48744262562	1506
2360.82736845194	1511.30004882813
2363.16660056738	1512.80004882813
2365.50513927683	1502.5
2367.8429848851	1509.5
2370.1801376969	1507.19995117188
2372.51659801683	1506.5
2374.85236614941	1505.30004882813
2377.18744239906	1503.80004882813
2379.52182707011	1501.90002441406
2381.85552046679	1509.40002441406
2384.18852289322	1517.59997558594
2386.52083465345	1510.90002441406
2388.85245605142	1517.80004882813
2391.18338739097	1507.40002441406
2393.51362897585	1507.09997558594
2395.84318110973	1497.40002441406
2398.17204409615	1498.69995117188
2400.50021823858	1507.5
2402.82770384038	1498.19995117188
2405.15450120483	1512
2407.48061063509	1507.09997558594
2409.80603243426	1519.40002441406
2412.13076690529	1526.69995117188
2414.4548143511	1507.69995117188
2416.77817507445	1511.30004882813
2419.10084937804	1511.5
2421.42283756447	1536.30004882813
2423.74413993625	1532
2426.06475679575	1523.40002441406
2428.38468844531	1534.09997558594
2430.70393518711	1539.19995117188
2433.02249732329	1543.59997558594
2435.34037515584	1545
2437.65756898669	1546.19995117188
2439.97407911767	1561.30004882813
2442.28990585049	1558.69995117188
2444.60504948679	1547.80004882813
2446.91951032808	1557.80004882813
2449.23328867581	1567.69995117188
2451.54638483132	1550.59997558594
2453.85879909585	1562.19995117188
2456.17053177052	1562.69995117188
2458.48158315639	1551.30004882813
2460.79195355441	1556.19995117188
2463.10164326542	1536.90002441406
2465.41065259017	1543.40002441406
2467.71898182932	1538.40002441406
2470.02663128344	1537.09997558594
2472.33360125296	1534.5
2474.63989203825	1532.90002441406
2476.94550393958	1533.69995117188
2479.25043725712	1532.19995117188
2481.55469229093	1527.69995117188
2483.85826934098	1532.5
2486.16116870713	1524.19995117188
2488.46339068916	1515.59997558594
2490.76493558676	1529.09997558594
2493.06580369949	1515.90002441406
2495.36599532684	1520.19995117188
2497.66551076817	1517.69995117188
2499.96435032278	1513.80004882813
2502.26251428984	1517.5
2504.56000296845	1506.59997558594
2506.85681665757	1514.09997558594
2509.15295565612	1517.30004882813
2511.44842026287	1522
2513.74321077651	1518.59997558594
2516.03732749563	1515.59997558594
2518.33077071873	1514.69995117188
2520.62354074419	1502.19995117188
2522.91563787031	1520.69995117188
2525.20706239528	1510.80004882813
2527.49781461721	1504.30004882813
2529.78789483408	1510
2532.0773033438	1515.30004882813
2534.36604044416	1508.30004882813
2536.65410643286	1501.59997558594
2538.9415016075	1514.30004882813
2541.22822626558	1507.09997558594
2543.51428070449	1516.59997558594
2545.79966522154	1502.19995117188
2548.08438011393	1499
2550.36842567876	1524.59997558594
2552.65180221302	1520.09997558594
2554.93451001363	1515
2557.21654937738	1512.69995117188
2559.49792060096	1499.80004882813
2561.77862398098	1504.59997558594
2564.05865981395	1515.59997558594
2566.33802839626	1505.90002441406
2568.61673002421	1502
2570.89476499399	1508.40002441406
2573.17213360172	1508.5
2575.44883614338	1516.40002441406
2577.72487291489	1514.40002441406
2580.00024421203	1521
2582.27495033048	1517.90002441406
2584.54899156587	1525.19995117188
2586.82236821368	1507.5
2589.0950805693	1512.09997558594
2591.36712892802	1521.80004882813
2593.63851358505	1516.30004882813
2595.90923483547	1527.90002441406
2598.17929297426	1527.59997558594
2600.44868829631	1530.19995117188
2602.71742109642	1531.19995117188
2604.98549166927	1539.40002441406
2607.25290030944	1544
2609.51964731142	1545.5
2611.78573296958	1550.19995117188
2614.05115757822	1570.90002441406
2616.31592143149	1565.59997558594
2618.58002482349	1573.19995117188
2620.84346804817	1581.59997558594
2623.10625139942	1593.59997558594
2625.36837517101	1596
2627.6298396566	1614.80004882813
2629.89064514976	1626.40002441406
2632.15079194395	1659.90002441406
2634.41028033254	1673.09997558594
2636.66911060878	1681
2638.92728306582	1709.09997558594
2641.18479799672	1759.59997558594
2643.44165569444	1759.90002441406
2645.69785645182	1811.30004882813
2647.95340056162	1839.80004882813
2650.20828831645	1893.40002441406
2652.46252000888	1955.09997558594
2654.71609593134	1980.69995117188
2656.96901637616	2054.69995117188
2659.22128163557	2106.19995117188
2661.47289200171	2176.69995117188
2663.72384776659	2208.89990234375
2665.97414922213	2264.60009765625
2668.22379666017	2324.5
2670.4727903724	2374.39990234375
2672.72113065044	2421
2674.9688177858	2423.80004882813
2677.21585206988	2456.89990234375
2679.46223379399	2439
2681.70796324931	2424.60009765625
2683.95304072694	2416.60009765625
2686.19746651787	2363.80004882813
2688.44124091298	2326.80004882813
2690.68436420305	2273.60009765625
2692.92683667876	2220.80004882813
2695.16865863068	2177.5
2697.40983034928	2117.10009765625
2699.65035212492	2029
2701.89022424785	2002
2704.12944700824	1923.5
2706.36802069612	1869.30004882813
2708.60594560146	1831.09997558594
2710.84322201407	1796.40002441406
2713.0798502237	1761.59997558594
2715.31583051998	1729.40002441406
2717.55116319244	1715.40002441406
2719.78584853048	1663.09997558594
2722.01988682344	1656.30004882813
2724.2532783605	1629.90002441406
2726.48602343079	1619.5
2728.71812232329	1598.19995117188
2730.9495753269	1576.30004882813
2733.1803827304	1560.90002441406
2735.4105448225	1561.5
2737.64006189173	1555.09997558594
2739.86893422659	1553.19995117188
2742.09716211544	1537.5
2744.32474584653	1529.59997558594
2746.55168570802	1528
2748.77798198795	1512.90002441406
2751.00363497426	1519.90002441406
2753.22864495479	1511.19995117188
2755.45301221725	1493.69995117188
2757.67673704928	1502.80004882813
2759.89981973839	1508
2762.12226057198	1501.09997558594
2764.34405983734	1488.90002441406
2766.56521782169	1487.30004882813
2768.7857348121	1486.59997558594
2771.00561109555	1497.30004882813
2773.22484695892	1489.5
2775.44344268897	1480.19995117188
2777.66139857236	1487.59997558594
2779.87871489564	1486.59997558594
2782.09539194526	1471.19995117188
2784.31143000754	1471.69995117188
2786.52682936873	1459.5
2788.74159031494	1472.19995117188
2790.95571313218	1456.19995117188
2793.16919810637	1450.19995117188
2795.38204552329	1472.59997558594
2797.59425566864	1460.5
2799.805828828	1467.5
2802.01676528685	1463.59997558594
2804.22706533056	1456.19995117188
2806.43672924436	1457.30004882813
2808.64575731343	1465.80004882813
2810.85414982279	1455.40002441406
2813.06190705738	1458.30004882813
2815.26902930203	1459.80004882813
2817.47551684145	1443.30004882813
2819.68136996024	1450.19995117188
2821.88658894291	1446.90002441406
2824.09117407383	1439.09997558594
2826.29512563729	1448
2828.49844391747	1446.69995117188
2830.70112919842	1446.09997558594
2832.90318176409	1452.09997558594
2835.10460189833	1462.09997558594
2837.30538988487	1467.40002441406
2839.50554600732	1435.90002441406
2841.70507054922	1444
2843.90396379395	1439.30004882813
2846.10222602482	1445.90002441406
2848.29985752501	1454.40002441406
2850.49685857759	1444.69995117188
2852.69322946553	1442.90002441406
2854.88897047169	1434
2857.08408187879	1438
2859.27856396949	1436
2861.4724170263	1440.19995117188
2863.66564133164	1446.80004882813
2865.85823716781	1436.5
2868.050204817	1446.40002441406
2870.2415445613	1428.90002441406
2872.43225668266	1441.80004882813
2874.62234146295	1443.5
2876.81179918393	1439.90002441406
2879.00063012722	1449.40002441406
2881.18883457435	1438.19995117188
2883.37641280674	1440.09997558594
2885.56336510569	1443.40002441406
2887.7496917524	1446.30004882813
2889.93539302793	1434.19995117188
2892.12046921326	1442.09997558594
2894.30492058926	1442.59997558594
2896.48874743666	1435
2898.67195003609	1430.59997558594
2900.85452866809	1450.90002441406
2903.03648361305	1430.40002441406
2905.21781515128	1434.69995117188
2907.39852356295	1431.90002441406
2909.57860912814	1431.30004882813
2911.75807212682	1429.59997558594
2913.93691283883	1428.59997558594
2916.1151315439	1438.30004882813
2918.29272852166	1435.90002441406
2920.46970405161	1422.5
2922.64605841316	1435
2924.82179188558	1430.59997558594
2926.99690474805	1428.40002441406
2929.17139727962	1428.5
2931.34526975924	1421.90002441406
2933.51852246574	1425.80004882813
2935.69115567784	1407.90002441406
2937.86316967414	1420.5
2940.03456473313	1423.19995117188
2942.20534113318	1424.19995117188
2944.37549915256	1423.30004882813
2946.54503906942	1416.59997558594
2948.71396116179	1420.90002441406
2950.8822657076	1420.59997558594
2953.04995298465	1413.30004882813
2955.21702327062	1410.09997558594
2957.38347684312	1408.90002441406
2959.54931397958	1408.40002441406
2961.71453495737	1409.69995117188
2963.87914005372	1413.59997558594
2966.04312954574	1394.19995117188
2968.20650371045	1403.40002441406
2970.36926282472	1398.90002441406
2972.53140716535	1404.40002441406
2974.69293700897	1411.59997558594
2976.85385263216	1396.30004882813
2979.01415431133	1400.40002441406
2981.17384232278	1398.5
2983.33291694274	1388.30004882813
2985.49137844726	1400.30004882813
2987.64922711234	1401
2989.8064632138	1408.5
2991.9630870274	1390.59997558594
2994.11909882875	1403.59997558594
2996.27449889334	1397.09997558594
2998.42928749659	1389.09997558594
3000.58346491374	1393.90002441406
3002.73703141997	1394.19995117188
3004.8899872903	1388.69995117188
3007.04233279965	1388.90002441406
3009.19406822284	1387.09997558594
3011.34519383455	1395.80004882813
3013.49570990936	1383.69995117188
3015.64561672172	1380.69995117188
3017.79491454597	1383.59997558594
3019.94360365632	1386.69995117188
3022.09168432689	1391.80004882813
3024.23915683165	1386.90002441406
3026.38602144448	1384.19995117188
3028.53227843913	1378.30004882813
3030.67792808923	1377.90002441406
3032.82297066831	1377.09997558594
3034.96740644975	1379.09997558594
3037.11123570684	1383.69995117188
3039.25445871273	1394.69995117188
3041.39707574049	1366.30004882813
3043.53908706303	1379.30004882813
3045.68049295316	1371.30004882813
3047.82129368358	1371.09997558594
3049.96148952684	1374.5
3052.1010807554	1379
3054.24006764161	1382.09997558594
3056.37845045767	1379.30004882813
3058.51622947568	1366.09997558594
3060.65340496763	1363.5
3062.78997720535	1371.40002441406
3064.92594646061	1373.5
3067.06131300501	1364.69995117188
3069.19607711007	1371.40002441406
3071.33023904715	1364.59997558594
3073.46379908752	1363.80004882813
3075.59675750233	1365.59997558594
3077.7291145626	1365.69995117188
3079.86087053922	1367.5
3081.99202570299	1369.59997558594
3084.12258032456	1359.90002441406
3086.25253467448	1364.59997558594
3088.38188902317	1357.30004882813
3090.51064364093	1363.40002441406
3092.63879879794	1372.40002441406
3094.76635476428	1358.5
3096.89331180986	1353.69995117188
3099.01967020452	1346.5
3101.14543021796	1358.19995117188
3103.27059211975	1358.90002441406
3105.39515617934	1354.5
3107.51912266608	1363.30004882813
3109.64249184919	1353
3111.76526399774	1355.90002441406
3113.88743938072	1352
3116.00901826698	1358.30004882813
3118.13000092523	1354.80004882813
3120.2503876241	1360.90002441406
3122.37017863206	1354
3124.48937421748	1358.80004882813
3126.6079746486	1348.59997558594
3128.72598019354	1338.40002441406
3130.84339112029	1350.90002441406
3132.96020769673	1357.30004882813
3135.07643019061	1351.40002441406
3137.19205886957	1339.30004882813
3139.3070940011	1339.19995117188
3141.42153585259	1339.09997558594
3143.5353846913	1347.19995117188
3145.64864078438	1344.80004882813
3147.76130439882	1344.59997558594
3149.87337580154	1356.09997558594
3151.98485525929	1347.09997558594
3154.09574303872	1344.09997558594
3156.20603940634	1338.80004882813
3158.31574462857	1345.90002441406
3160.42485897167	1347.40002441406
3162.53338270181	1344.5
3164.64131608498	1339.30004882813
3166.74865938712	1344.09997558594
3168.85541287398	1338.90002441406
3170.96157681123	1341.5
3173.0671514644	1335.5
3175.17213709889	1342.80004882813
3177.27653397998	1340.90002441406
3179.38034237284	1338.5
3181.48356254248	1334.30004882813
3183.58619475382	1330.5
3185.68823927165	1331.40002441406
3187.78969636061	1341.19995117188
3189.89056628524	1348.09997558594
3191.99084930995	1335.19995117188
3194.09054569901	1327
3196.18965571659	1338.69995117188
3198.28817962671	1326.19995117188
3200.38611769327	1327.19995117188
3202.48347018006	1324.19995117188
3204.58023735073	1329.19995117188
3206.67641946881	1330
3208.77201679769	1336.90002441406
3210.86702960065	1344.69995117188
3212.96145814084	1336.30004882813
3215.05530268128	1339.40002441406
3217.14856348487	1340.19995117188
3219.24124081437	1335.69995117188
3221.33333493243	1345
3223.42484610157	1343.80004882813
3225.51577458416	1346.80004882813
3227.60612064247	1346
3229.69588453864	1352.30004882813
3231.78506653466	1358
3233.87366689244	1349.80004882813
3235.9616858737	1357.19995117188
3238.04912374008	1354.30004882813
3240.13598075307	1353.19995117188
3242.22225717405	1351.90002441406
3244.30795326425	1353.69995117188
3246.39306928479	1332.59997558594
3248.47760549664	1336.90002441406
3250.56156216068	1324.69995117188
3252.64493953762	1329.5
3254.72773788807	1324.59997558594
3256.8099574725	1315.90002441406
3258.89159855124	1324.5
3260.97266138451	1313
3263.05314623241	1311.5
3265.13305335488	1304.30004882813
3267.21238301175	1322.19995117188
3269.29113546272	1320.40002441406
3271.36931096736	1307
3273.4469097851	1312.5
3275.52393217526	1305.09997558594
3277.60037839702	1304.09997558594
3279.67624870941	1307.40002441406
3281.75154337138	1312.40002441406
3283.8262626417	1304.69995117188
3285.90040677904	1308.90002441406
3287.97397604193	1304.5
3290.04697068876	1308.19995117188
3292.11939097781	1308.80004882813
3294.19123716721	1309
3296.26250951497	1308.69995117188
3298.33320827897	1306.59997558594
3300.40333371696	1307.69995117188
3302.47288608655	1302.30004882813
3304.54186564524	1293.59997558594
3306.61027265036	1304
3308.67810735915	1301.69995117188
3310.74537002869	1301.90002441406
3312.81206091594	1298.80004882813
3314.87818027774	1294.80004882813
3316.94372837077	1305.59997558594
3319.00870545161	1298.19995117188
3321.07311177668	1294.09997558594
3323.13694760229	1292.5
3325.2002131846	1289.59997558594
3327.26290877964	1289.80004882813
3329.32503464334	1294.09997558594
3331.38659103145	1294.90002441406
3333.4475781996	1279.5
3335.50799640332	1285.40002441406
3337.56784589797	1292.30004882813
3339.62712693879	1291.19995117188
3341.68583978089	1289.09997558594
3343.74398467924	1295.90002441406
3345.80156188869	1298.80004882813
3347.85857166394	1293
3349.91501425956	1286.40002441406
3351.97088992999	1286.09997558594
3354.02619892956	1298.30004882813
3356.0809415124	1290.69995117188
3358.13511793259	1282.30004882813
3360.18872844401	1286.19995117188
3362.24177330044	1287.09997558594
3364.29425275552	1280.40002441406
3366.34616706274	1282.09997558594
3368.39751647548	1287.19995117188
3370.44830124696	1283.5
3372.49852163029	1282.69995117188
3374.54817787843	1283.90002441406
3376.5972702442	1290
3378.64579898031	1283.09997558594
3380.69376433931	1281.5
3382.74116657361	1280.09997558594
3384.78800593552	1282.80004882813
3386.83428267718	1280
3388.8799970506	1274.40002441406
3390.92514930767	1282.30004882813
3392.96973970014	1276.19995117188
3395.01376847962	1286.5
3397.05723589757	1282.40002441406
3399.10014220533	1274.90002441406
3401.1424876541	1277.80004882813
3403.18427249495	1276
3405.22549697881	1276.30004882813
3407.26616135646	1269.59997558594
3409.30626587856	1280.5
3411.34581079563	1273.19995117188
3413.38479635805	1274.19995117188
3415.42322281605	1272.5
3417.46109041976	1274.69995117188
3419.49839941912	1265.5
3421.53515006399	1263.80004882813
3423.57134260405	1272.80004882813
3425.60697728886	1270.40002441406
3427.64205436783	1270.69995117188
3429.67657409025	1277.30004882813
3431.71053670525	1267.40002441406
3433.74394246185	1265.90002441406
3435.77679160891	1273.90002441406
3437.80908439515	1265
3439.84082106917	1269.80004882813
3441.87200187943	1270.59997558594
3443.90262707421	1269.80004882813
3445.93269690172	1264.19995117188
3447.96221160996	1270.59997558594
3449.99117144686	1272.30004882813
3452.01957666015	1264.40002441406
3454.04742749746	1268.69995117188
3456.07472420626	1268.30004882813
3458.1014670339	1262.90002441406
3460.12765622756	1258.5
3462.15329203432	1259.5
3464.17837470108	1260.90002441406
3466.20290447463	1254
3468.22688160161	1259.69995117188
3470.25030632851	1259
3472.2731789017	1266.80004882813
3474.29549956739	1257
3476.31726857166	1254.19995117188
3478.33848616045	1265
3480.35915257955	1269.09997558594
3482.37926807462	1258.40002441406
3484.39883289117	1256.30004882813
3486.41784727458	1258
3488.43631147007	1254.5
3490.45422572275	1254.80004882813
3492.47159027755	1259.09997558594
3494.4884053793	1254.80004882813
3496.50467127263	1259
3498.5203882021	1247.09997558594
3500.53555641208	1254.59997558594
3502.5501761468	1251.69995117188
3504.56424765036	1250.40002441406
3506.57777116674	1247.5
3508.59074693973	1248.09997558594
3510.603175213	1252.90002441406
3512.61505623009	1252.90002441406
3514.62639023438	1246.80004882813
3516.63717746911	1255.09997558594
3518.64741817739	1249
3520.65711260216	1245.80004882813
3522.66626098625	1252.80004882813
3524.67486357232	1249.59997558594
3526.6829206029	1247.59997558594
3528.69043232037	1246.59997558594
3530.69739896698	1248.5
3532.70382078481	1245.09997558594
3534.70969801583	1248.80004882813
3536.71503090183	1244.80004882813
3538.71981968447	1245.30004882813
3540.72406460529	1245.09997558594
3542.72776590566	1247.69995117188
3544.7309238268	1241.19995117188
3546.7335386098	1253.59997558594
3548.7356104956	1249.90002441406
3550.737139725	1244.40002441406
3552.73812653866	1247.19995117188
3554.73857117706	1241.19995117188
3556.73847388059	1240.19995117188
3558.73783488944	1240.90002441406
3560.7366544437	1238.69995117188
3562.73493278328	1245.19995117188
3564.73267014797	1239.5
3566.7298667774	1240.59997558594
3568.72652291106	1230.69995117188
3570.72263878828	1239.30004882813
3572.71821464827	1243.59997558594
3574.71325073007	1237.69995117188
3576.70774727257	1241.5
3578.70170451455	1230.69995117188
3580.6951226946	1234.59997558594
3582.68800205121	1245.09997558594
3584.68034282266	1239.40002441406
3586.67214524714	1236.30004882813
3588.66340956266	1232.5
3590.6541360071	1244.5
3592.6443248182	1227.69995117188
3594.63397623352	1238.19995117188
3596.6230904905	1237.30004882813
3598.61166782642	1237.09997558594
3600.59970847842	1234.5
3602.58721268348	1228.30004882813
3604.57418067846	1231.09997558594
3606.56061270003	1229.09997558594
3608.54650898475	1226.69995117188
3610.53186976901	1232.69995117188
3612.51669528905	1229.09997558594
3614.50098578098	1232.69995117188
3616.48474148074	1230.5
3618.46796262413	1224.5
3620.45064944681	1224.90002441406
3622.43280218428	1224.09997558594
3624.41442107188	1229.59997558594
3626.39550634484	1228.69995117188
3628.37605823819	1226.69995117188
3630.35607698685	1230
3632.33556282556	1225.30004882813
3634.31451598894	1232.19995117188
3636.29293671143	1234.40002441406
3638.27082522735	1226.30004882813
3640.24818177084	1229.5
3642.22500657592	1228.59997558594
3644.20129987644	1222.59997558594
3646.17706190608	1221.19995117188
3648.15229289843	1223.19995117188
3650.12699308687	1223.40002441406
3652.10116270465	1226.69995117188
3654.07480198488	1228.59997558594
3656.04791116049	1222.40002441406
3658.02049046431	1228.69995117188
3659.99254012895	1225.5
3661.96406038692	1214.19995117188
3663.93505147056	1224.69995117188
3665.90551361207	1224.19995117188
3667.87544704349	1223.40002441406
3669.84485199668	1220.69995117188
3671.81372870341	1218
3673.78207739523	1222.40002441406
3675.7498983036	1215.69995117188
3677.71719165977	1219
3679.68395769488	1221.80004882813
3681.65019663991	1219.30004882813
3683.61590872567	1223.19995117188
3685.58109418282	1220.90002441406
3687.54575324187	1219.90002441406
3689.5098861332	1225.09997558594
3691.473493087	1220.90002441406
3693.43657433333	1221.69995117188
3695.39913010208	1217.80004882813
3697.36116062301	1221.69995117188
3699.32266612569	1220.80004882813
3701.28364683959	1217.09997558594
3703.24410299397	1225.5
3705.20403481795	1215.19995117188
3707.16344254053	1222.19995117188
3709.12232639052	1215.69995117188
3711.08068659659	1214
3713.03852338724	1219.09997558594
3714.99583699084	1211.40002441406
3716.95262763558	1212.19995117188
3718.90889554951	1215.90002441406
3720.86464096053	1213.5
3722.81986409636	1212
3724.7745651846	1213.90002441406
3726.72874445265	1213.69995117188
3728.6824021278	1214.40002441406
3730.63553843715	1213.30004882813
3732.58815360767	1210
3734.54024786615	1211.80004882813
3736.49182143924	1209.90002441406
3738.44287455343	1212.19995117188
3740.39340743505	1214.59997558594
3742.34342031027	1212.5
3744.29291340513	1214.09997558594
3746.24188694546	1210.59997558594
3748.190341157	1206.90002441406
3750.13827626527	1206.30004882813
3752.08569249567	1210.59997558594
3754.03259007345	1209.69995117188
3755.97896922367	1207.90002441406
3757.92483017124	1209.5
3759.87017314094	1206.40002441406
3761.81499835737	1206.69995117188
3763.75930604498	1213
3765.70309642803	1208.90002441406
3767.64636973068	1206.40002441406
3769.58912617689	1208.5
3771.53136599047	1204.90002441406
3773.47308939509	1210.90002441406
3775.41429661421	1204.40002441406
