-174.488245116115	1147.80004882813
-171.353866679816	1146.19995117188
-168.22051297009	1148.40002441406
-165.088183560586	1148.09997558594
-161.956878025242	1149.90002441406
-158.826595938226	1147.69995117188
-155.697336873968	1151
-152.569100407157	1146.09997558594
-149.441886112741	1148.69995117188
-146.315693565896	1150.40002441406
-143.190522342091	1147.30004882813
-140.066372017002	1150.69995117188
-136.943242166608	1145.80004882813
-133.82113236709	1146.40002441406
-130.7000421949	1147.59997558594
-127.579971226752	1148.80004882813
-124.46091903959	1146.19995117188
-121.342885210617	1146.5
-118.225869317289	1149.09997558594
-115.109870937295	1146.19995117188
-111.994889648578	1149.30004882813
-108.880925029339	1148.30004882813
-105.767976658009	1146.5
-102.656044113272	1148.69995117188
-99.5451269740494	1146.40002441406
-96.4352248195329	1150
-93.3263372291173	1147.59997558594
-90.2184637824824	1149
-87.1116040595153	1151
-84.0057576403752	1148.19995117188
-80.9009241054446	1147.40002441406
-77.7971030353455	1147.80004882813
-74.6942940109553	1147
-71.5924966133822	1146.80004882813
-68.4917104239774	1146
-65.3919350243307	1147.09997558594
-62.2931699962624	1148.5
-59.1954149218515	1148.19995117188
-56.0986693833866	1147.80004882813
-53.0029329634189	1148.30004882813
-49.908205244721	1147.09997558594
-46.8144858103075	1147.19995117188
-43.7217742434262	1148.59997558594
-40.6300701275667	1149.09997558594
-37.5393730464434	1148.09997558594
-34.4496825840078	1147.5
-31.3609983244403	1146.69995117188
-28.273319852166	1146.40002441406
-25.1866467518426	1151.30004882813
-22.10097860834	1148.59997558594
-19.0163150067886	1149.5
-15.9326555325185	1148.40002441406
-12.8499997711119	1148.30004882813
-9.76834730837485	1147
-6.68769773034879	1148.69995117188
-3.60805062329064	1149
-0.529405573692618	1163.59997558594
2.54823783170989	1180.30004882813
5.62488000599066	1170.90002441406
8.70052136196052	1154.09997558594
11.7751623122237	1152.30004882813
14.8488032691459	1148.40002441406
17.9214446448865	1148.90002441406
20.9930868513505	1148.19995117188
24.0637303002531	1148.59997558594
27.1333754030514	1147.40002441406
30.2020225710047	1148.40002441406
33.2696722151428	1147.90002441406
36.3363247462699	1147.5
39.401980574957	1150.09997558594
42.4666401115817	1148.09997558594
45.5303037662728	1148.69995117188
48.5929719489461	1149.80004882813
51.6546450693084	1151
54.7153235368463	1148.09997558594
57.7750077608055	1148.90002441406
60.8336981502356	1148.09997558594
63.891395113966	1146.5
66.9480990605899	1147.69995117188
70.0038103985047	1150.40002441406
73.0585295358718	1148.5
76.112256880665	1154.19995117188
79.1649928406108	1176.40002441406
82.21673782324	1239.30004882813
85.2674922358484	1321.30004882813
88.3172564855524	1393.5
91.3660309792176	1410.40002441406
94.4138161235146	1432.40002441406
97.4606123248875	1430.80004882813
100.506419989605	1430.40002441406
103.551239523679	1434.09997558594
106.595071332926	1435.59997558594
109.637915822959	1438.5
112.679773399166	1424.59997558594
115.720644466743	1414.30004882813
118.760529430661	1432.40002441406
121.799428695683	1421.90002441406
124.83734266637	1416.30004882813
127.874271747074	1419
130.910216341928	1410
133.945176854874	1408.69995117188
136.979153689627	1408.5
140.012147249714	1403.40002441406
143.044157938449	1399.19995117188
146.075186158938	1398.09997558594
149.105232314081	1393.69995117188
152.134296806573	1389.69995117188
155.162380038908	1402.80004882813
158.189482413382	1383
161.215604332062	1389.80004882813
164.240746196836	1386.5
167.264908409388	1378.30004882813
170.288091371194	1390.19995117188
173.310295483525	1380.80004882813
176.331521147454	1385.30004882813
179.351768763859	1385.40002441406
182.3710387334	1371.19995117188
185.389331456545	1385.59997558594
188.40664733357	1379.80004882813
191.422986764561	1377.69995117188
194.438350149375	1386.09997558594
197.452737887679	1375.59997558594
200.466150378974	1382.30004882813
203.478588022515	1374
206.490051217389	1383.5
209.500540362482	1374.90002441406
212.510055856486	1374.09997558594
215.51859809788	1380.5
218.526167484984	1380
221.532764415869	1379.90002441406
224.538389288469	1391.19995117188
227.543042500475	1394.40002441406
230.546724449419	1398.30004882813
233.549435532609	1404.19995117188
236.551176147184	1416.5
239.551946690085	1411.30004882813
242.551747558066	1415.19995117188
245.55057914767	1412.69995117188
248.548441855258	1409.09997558594
251.545336077006	1423.90002441406
254.541262208898	1417.30004882813
257.536220646712	1416.69995117188
260.53021178606	1405.30004882813
263.523236022356	1430.69995117188
266.515293750805	1436.40002441406
269.506385366465	1433.80004882813
272.496511264158	1415.40002441406
275.485671838549	1430.19995117188
278.473867484101	1433.40002441406
281.461098595114	1431.80004882813
284.44736556567	1428.80004882813
287.432668789673	1448.80004882813
290.417008660864	1454.90002441406
293.400385572757	1453.80004882813
296.382799918725	1476.59997558594
299.364252091929	1491.80004882813
302.344742485338	1505.30004882813
305.324271491768	1501.5
308.302839503825	1480.19995117188
311.280446913945	1459.90002441406
314.257094114377	1449.59997558594
317.23278149719	1441.09997558594
320.207509454258	1424.69995117188
323.181278377283	1425.30004882813
326.154088657796	1428.40002441406
329.125940687134	1416.19995117188
332.096834856454	1420.90002441406
335.066771556737	1401.40002441406
338.035751178774	1407.30004882813
341.003774113189	1404.90002441406
343.97084075043	1405.90002441406
346.936951480745	1402.90002441406
349.902106694219	1398
352.866306780769	1392.5
355.82955213011	1402
358.791843131792	1391.40002441406
361.753180175185	1396.19995117188
364.713563649499	1382
367.672993943731	1384.5
370.631471446741	1390
373.588996547206	1383.19995117188
376.545569633593	1393.09997558594
379.501191094236	1375.69995117188
382.45586131727	1379
385.409580690674	1387
388.362349602236	1368.40002441406
391.314168439577	1356.90002441406
394.265037590153	1364
397.214957441235	1374.09997558594
400.16392837993	1362
403.111950793165	1353.30004882813
406.059025067691	1360.40002441406
409.005151590118	1359.80004882813
411.950330746855	1360.5
414.894562924143	1367.09997558594
417.837848508063	1368.5
420.780187884513	1365.40002441406
423.721581439244	1362.90002441406
426.662029557819	1362.69995117188
429.601532625628	1371.40002441406
432.540091027909	1376.09997558594
435.477705149715	1374
438.414375375956	1362.90002441406
441.350102091341	1363.90002441406
444.284885680439	1357.80004882813
447.218726527646	1344.09997558594
450.151625017169	1347.30004882813
453.083581533085	1334
456.014596459275	1332.5
458.94467017946	1333
461.87380307723	1325.19995117188
464.801995535963	1333.09997558594
467.72924793888	1333.59997558594
470.655560669072	1341.40002441406
473.580934109433	1349.5
476.505368642699	1340.19995117188
479.42886465145	1349.90002441406
482.351422518103	1366.19995117188
485.273042624905	1378.80004882813
488.193725353949	1386.09997558594
491.113471087159	1405.09997558594
494.032280206301	1403.69995117188
496.950153092974	1436.90002441406
499.867090128629	1458
502.783091694533	1515
505.698158171827	1609.90002441406
508.612289941456	1819.59997558594
511.525487384225	2363.39990234375
514.43775088078	4098.89990234375
517.3490808116	8145.7001953125
520.259477557008	10493.099609375
523.168941497168	7637.10009765625
526.077473012083	4335.39990234375
528.98507248161	2832.19995117188
531.891740285434	2193.30004882813
534.797476803086	1847.40002441406
537.702282413949	1685.80004882813
540.606157497241	1569.90002441406
543.509102432012	1496.40002441406
546.411117597179	1464.5
549.312203371496	1437.19995117188
552.212360133551	1405.80004882813
555.111588261787	1378.09997558594
558.009888134493	1374.80004882813
560.907260129786	1359.19995117188
563.803704625648	1363.59997558594
566.699221999907	1352.5
569.593812630219	1341.19995117188
572.487476894111	1341.30004882813
575.380215168932	1338.40002441406
578.272027831898	1339.59997558594
581.162915260056	1323.59997558594
584.052877830319	1332.19995117188
586.941915919431	1328.09997558594
589.830029903984	1323.5
592.717220160442	1324.09997558594
595.603487065095	1328.30004882813
598.488830994078	1332.90002441406
601.373252323396	1334
604.256751428889	1336.69995117188
607.139328686265	1334.40002441406
610.020984471038	1337.59997558594
612.90171915863	1343.40002441406
615.781533124278	1360.09997558594
618.660426743072	1354.40002441406
621.538400389971	1343.90002441406
624.415454439761	1340.59997558594
627.291589267105	1337
630.166805246513	1341.5
633.041102752313	1329.69995117188
635.914482158742	1339
638.786943839845	1340.40002441406
641.658488169547	1332.30004882813
644.529115521603	1334.80004882813
647.398826269641	1332.90002441406
650.267620787151	1345.40002441406
653.135499447438	1334.5
656.002462623708	1342.59997558594
658.868510688984	1334.80004882813
661.733644016172	1353.69995117188
664.59786297802	1340
667.461167947139	1339.09997558594
670.32355929598	1346
673.185037396862	1345.90002441406
676.045602621965	1345.90002441406
678.905255343306	1340.30004882813
681.763995932795	1340.69995117188
684.621824762164	1335.69995117188
687.47874220302	1336.30004882813
690.334748626818	1333.30004882813
693.189844404876	1325.90002441406
696.044029908375	1326.19995117188
698.897305508341	1315.90002441406
701.749671575677	1312.30004882813
704.601128481138	1314.40002441406
707.451676595324	1316.69995117188
710.301316288718	1317.5
713.150047931639	1312.69995117188
715.997871894292	1310
718.844788546713	1310.5
721.690798258824	1307.80004882813
724.535901400393	1315.30004882813
727.380098341057	1314
730.223389450309	1307.30004882813
733.065775097502	1316.19995117188
735.907255651861	1315.19995117188
738.747831482461	1305.5
741.587502958238	1306.09997558594
744.426270448005	1301.19995117188
747.264134320431	1302.80004882813
750.101094944034	1300.30004882813
752.937152687221	1310.09997558594
755.772307918238	1306.19995117188
758.606561005211	1312.69995117188
761.439912316121	1306.09997558594
764.272362218816	1304.59997558594
767.103911081018	1307.30004882813
769.934559270291	1300.69995117188
772.764307154079	1311.09997558594
775.593155099695	1305.19995117188
778.42110347431	1313.59997558594
781.248152644956	1317.19995117188
784.074302978539	1312.19995117188
786.899554841832	1320.19995117188
789.723908601474	1311
792.547364623949	1319.09997558594
795.369923275648	1321.90002441406
798.191584922798	1315.30004882813
801.012349931499	1321.5
803.832218667714	1318.19995117188
806.651191497303	1321.90002441406
809.469268785944	1319.69995117188
812.286450899232	1315.40002441406
815.1027382026	1322.40002441406
817.918131061357	1321.90002441406
820.73262984068	1332.69995117188
823.546234905624	1318.5
826.358946621095	1324
829.170765351889	1319.69995117188
831.981691462663	1324.09997558594
834.791725317936	1321.19995117188
837.600867282103	1316.90002441406
840.409117719429	1325.30004882813
843.216476994053	1319.19995117188
846.022945469989	1313.80004882813
848.828523511098	1331.90002441406
851.633211481134	1321.69995117188
854.437009743721	1322.30004882813
857.239918662353	1319.69995117188
860.041938600383	1327
862.843069921057	1313.40002441406
865.643312987472	1331
868.442668162604	1317.59997558594
871.241135809316	1322.19995117188
874.038716290324	1326.09997558594
876.835409968233	1327.30004882813
879.63121720551	1331
882.426138364494	1333.80004882813
885.22017380741	1322.80004882813
888.013323896339	1333.19995117188
890.805588993253	1324.59997558594
893.596969459993	1323.5
896.387465658265	1322.40002441406
899.177077949666	1328.80004882813
901.965806695649	1328.5
904.75365225756	1329.5
907.540614996601	1331
910.326695273873	1329.30004882813
913.111893450328	1320.80004882813
915.896209886813	1321.40002441406
918.679644944044	1341.40002441406
921.462198982604	1347.69995117188
924.243872362968	1362.40002441406
927.02466544548	1383.69995117188
929.804578590358	1427.80004882813
932.583612157696	1473.80004882813
935.361766507473	1523.59997558594
938.13904199954	1579.40002441406
940.915438993633	1584.09997558594
943.690957849354	1602.80004882813
946.465598926189	1588.80004882813
949.239362583496	1602.90002441406
952.012249180518	1596.80004882813
954.784259076376	1607.40002441406
957.555392630071	1603
960.325650200475	1595.40002441406
963.09503214635	1605.80004882813
965.863538826323	1610.80004882813
968.631170598912	1615.69995117188
971.397927822515	1603.09997558594
974.163810855393	1621.19995117188
976.928820055712	1622.59997558594
979.692955781498	1622.30004882813
982.456218390671	1607.90002441406
985.218608241021	1584.40002441406
987.980125690221	1544.09997558594
990.740771095826	1503.5
993.500544815275	1469.90002441406
996.259447205875	1447
999.017478624842	1411.5
1001.77463942924	1401.09997558594
1004.53092997605	1390.5
1007.28635062209	1381.59997558594
1010.0409017241	1381.69995117188
1012.79458363868	1367.90002441406
1015.54739672233	1362.40002441406
1018.29934133142	1359.80004882813
1021.05041782219	1361.30004882813
1023.8006265508	1336
1026.54996787325	1334.69995117188
1029.29844214545	1339.40002441406
1032.0460497232	1331.5
1034.79279096215	1326.90002441406
1037.53866621786	1310.5
1040.28367584578	1310.59997558594
1043.02782020123	1302.30004882813
1045.7710996394	1305.5
1048.51351451539	1315
1051.25506518417	1303.90002441406
1053.99575200061	1306.40002441406
1056.73557531945	1304.90002441406
1059.4745354953	1305.19995117188
1062.2126328827	1310.80004882813
1064.94986783605	1304.30004882813
1067.68624070961	1305.5
1070.42175185757	1317.09997558594
1073.15640163398	1309.59997558594
1075.89019039278	1307
1078.6231184878	1316.5
1081.35518627276	1314
1084.08639410125	1318.5
1086.81674232676	1316.69995117188
1089.54623130267	1312.40002441406
1092.27486138224	1306.5
1095.00263291861	1313.5
1097.72954626482	1308.40002441406
1100.45560177378	1313.30004882813
1103.18079979831	1312.19995117188
1105.90514069112	1307.5
1108.62862480477	1324.40002441406
1111.35125249175	1324
1114.07302410441	1317.40002441406
1116.793939995	1323.19995117188
1119.51400051566	1326.59997558594
1122.23320601841	1320.80004882813
1124.95155685517	1320.80004882813
1127.66905337774	1324.5
1130.38569593782	1322.40002441406
1133.10148488697	1322.90002441406
1135.81642057667	1324.90002441406
1138.53050335829	1328.69995117188
1141.24373358306	1325
1143.95611160214	1324.40002441406
1146.66763776654	1328.09997558594
1149.37831242718	1323.09997558594
1152.08813593487	1326.09997558594
1154.7971086403	1329.90002441406
1157.50523089408	1328.19995117188
1160.21250304667	1322.59997558594
1162.91892544844	1323.90002441406
1165.62449844965	1319.59997558594
1168.32922240045	1324.80004882813
1171.0330976509	1326
1173.73612455091	1329.80004882813
1176.43830345031	1331.80004882813
1179.13963469882	1338.80004882813
1181.84011864604	1338.90002441406
1184.53975564147	1338.5
1187.23854603451	1338.5
1189.93649017442	1334
1192.63358841039	1336.80004882813
1195.32984109149	1339.5
1198.02524856667	1336
1200.71981118478	1344.59997558594
1203.41352929457	1348.90002441406
1206.10640324467	1341.5
1208.79843338361	1341.19995117188
1211.48962005981	1350.59997558594
1214.17996362159	1357.19995117188
1216.86946441716	1343.30004882813
1219.55812279461	1351.5
1222.24593910194	1359
1224.93291368704	1355.80004882813
1227.61904689769	1356.59997558594
1230.30433908157	1357.59997558594
1232.98879058625	1357.80004882813
1235.67240175918	1370.40002441406
1238.35517294773	1368.59997558594
1241.03710449915	1360.5
1243.71819676058	1368.09997558594
1246.39845007907	1363.59997558594
1249.07786480155	1381.59997558594
1251.75644127485	1365.90002441406
1254.43417984571	1383.69995117188
1257.11108086072	1378.09997558594
1259.78714466643	1376
1262.46237160921	1382.19995117188
1265.1367620354	1383.59997558594
1267.81031629118	1384.09997558594
1270.48303472266	1383.40002441406
1273.15491767583	1391.09997558594
1275.82596549657	1381.59997558594
1278.49617853067	1394.90002441406
1281.16555712381	1385.09997558594
1283.83410162156	1394.09997558594
1286.50181236939	1402.19995117188
1289.16868971269	1399.59997558594
1291.8347339967	1399.40002441406
1294.49994556659	1414
1297.16432476743	1405.40002441406
1299.82787194415	1407.09997558594
1302.49058744163	1411.19995117188
1305.15247160459	1416.80004882813
1307.81352477769	1415.69995117188
1310.47374730548	1426.40002441406
1313.1331395324	1426.09997558594
1315.79170180277	1426
1318.44943446083	1426
1321.10633785073	1424.80004882813
1323.76241231648	1427.90002441406
1326.41765820202	1433
1329.07207585117	1450.59997558594
1331.72566560766	1449
1334.3784278151	1453.59997558594
1337.03036281703	1444.5
1339.68147095686	1446
1342.33175257789	1449
1344.98120802335	1451.59997558594
1347.62983763636	1449.59997558594
1350.27764175994	1452.40002441406
1352.92462073697	1450.80004882813
1355.57077491028	1446.09997558594
1358.21610462259	1446.40002441406
1360.86061021649	1437.09997558594
1363.50429203449	1449.59997558594
1366.14715041901	1453.5
1368.78918571234	1449.40002441406
1371.4303982567	1450.40002441406
1374.07078839419	1446.30004882813
1376.71035646681	1445
1379.34910281647	1437.90002441406
1381.98702778498	1441.90002441406
1384.62413171402	1432.80004882813
1387.26041494523	1441.59997558594
1389.89587782008	1433.69995117188
1392.53052068001	1421.80004882813
1395.16434386629	1424.30004882813
1397.79734772015	1441.40002441406
1400.42953258269	1432.19995117188
1403.0608987949	1438.19995117188
1405.69144669771	1431
1408.32117663193	1426.40002441406
1410.95008893825	1433.09997558594
1413.57818395728	1426.09997558594
1416.20546202954	1427.30004882813
1418.83192349543	1433.80004882813
1421.45756869528	1430.90002441406
1424.08239796929	1430.09997558594
1426.70641165757	1423.30004882813
1429.32961010016	1421.90002441406
1431.95199363695	1417.09997558594
1434.57356260778	1428.69995117188
1437.19431735237	1427.40002441406
1439.81425821033	1414
1442.43338552118	1418.19995117188
1445.05169962437	1418.30004882813
1447.66920085921	1427.19995117188
1450.28588956493	1416.09997558594
1452.90176608067	1409.59997558594
1455.51683074547	1418.59997558594
1458.13108389825	1414.59997558594
1460.74452587786	1420.59997558594
1463.35715702303	1413.80004882813
1465.96897767243	1428.5
1468.57998816457	1412.90002441406
1471.19018883794	1419.09997558594
1473.79958003086	1413.30004882813
1476.4081620816	1412.59997558594
1479.01593532831	1414.80004882813
1481.62290010905	1425.40002441406
1484.22905676179	1413
1486.83440562438	1407.90002441406
1489.43894703461	1416.80004882813
1492.04268133016	1421.90002441406
1494.64560884857	1412.80004882813
1497.24772992735	1410.90002441406
1499.84904490388	1414.5
1502.44955411543	1411.40002441406
1505.0492578992	1416.80004882813
1507.64815659229	1421.30004882813
1510.24625053168	1431.19995117188
1512.84354005429	1417
1515.44002549691	1421.5
1518.03570719625	1422.09997558594
1520.63058548894	1429.09997558594
1523.22466071147	1424.19995117188
1525.81793320028	1426.90002441406
1528.41040329169	1437.40002441406
1531.00207132192	1446
1533.59293762712	1435.80004882813
1536.18300254332	1436.69995117188
1538.77226640645	1448.19995117188
1541.36072955237	1441.59997558594
1543.94839231684	1458
1546.53525503548	1446.30004882813
1549.12131804389	1455.19995117188
1551.70658167752	1464.90002441406
1554.29104627173	1471.69995117188
1556.87471216181	1475.19995117188
1559.45757968292	1478.90002441406
1562.03964917017	1487.5
1564.62092095853	1511.90002441406
1567.2013953829	1512.09997558594
1569.78107277808	1534
1572.35995347877	1544.69995117188
1574.93803781959	1541.5
1577.51532613504	1556.80004882813
1580.09181875956	1544.69995117188
1582.66751602746	1550.80004882813
1585.24241827297	1546.40002441406
1587.81652583024	1526.80004882813
1590.3898390333	1517.19995117188
1592.96235821611	1508.19995117188
1595.53408371251	1508.80004882813
1598.10501585628	1504.19995117188
1600.67515498106	1490.5
1603.24450142043	1481.30004882813
1605.81305550788	1477.69995117188
1608.38081757677	1478.80004882813
1610.9477879604	1467.19995117188
1613.51396699198	1453.69995117188
1616.07935500458	1463
1618.64395233122	1441.69995117188
1621.20775930483	1436.19995117188
1623.7707762582	1427.69995117188
1626.33300352408	1428.5
1628.89444143508	1408.69995117188
1631.45509032376	1408.09997558594
1634.01495052255	1402.5
1636.5740223638	1390.19995117188
1639.13230617978	1385.90002441406
1641.68980230264	1378.30004882813
1644.24651106446	1352.19995117188
1646.80243279721	1379.09997558594
1649.35756783278	1366.30004882813
1651.91191650296	1368.59997558594
1654.46547913944	1353.80004882813
1657.01825607383	1358.19995117188
1659.57024763764	1351.69995117188
1662.12145416229	1351.90002441406
1664.6718759791	1348.19995117188
1667.2215134193	1340.30004882813
1669.77036681404	1335.30004882813
1672.31843649435	1342.30004882813
1674.8657227912	1337.09997558594
1677.41222603543	1339.30004882813
1679.95794655782	1327.5
1682.50288468904	1322.90002441406
1685.04704075968	1323.59997558594
1687.59041510022	1327
1690.13300804106	1321.5
1692.67481991249	1329.09997558594
1695.21585104474	1312.19995117188
1697.75610176791	1322.90002441406
1700.29557241205	1313.69995117188
1702.83426330707	1313.19995117188
1705.37217478282	1315
1707.90930716905	1312.90002441406
1710.44566079541	1311
1712.98123599146	1309.09997558594
1715.51603308669	1316.69995117188
1718.05005241045	1315.09997558594
1720.58329429205	1318
1723.11575906067	1316.59997558594
1725.64744704542	1316
1728.17835857532	1310.90002441406
1730.70849397927	1308.5
1733.2378535861	1317.19995117188
1735.76643772453	1304.90002441406
1738.29424672323	1311.69995117188
1740.82128091074	1312.5
1743.3475406155	1313.30004882813
1745.87302616589	1306.19995117188
1748.39773789019	1304.90002441406
1750.92167611656	1303.80004882813
1753.44484117311	1307
1755.96723338783	1302.59997558594
1758.48885308862	1309.09997558594
1761.00970060331	1302.69995117188
1763.52977625961	1305.19995117188
1766.04908038514	1307.30004882813
1768.56761330746	1304.90002441406
1771.08537535401	1296.40002441406
1773.60236685214	1310.59997558594
1776.11858812912	1308.30004882813
1778.63403951211	1304.5
1781.14872132821	1314.69995117188
1783.6626339044	1310.09997558594
1786.17577756757	1306.59997558594
1788.68815264454	1305.40002441406
1791.199759462	1300.80004882813
1793.7105983466	1306.19995117188
1796.22066962486	1298.69995117188
1798.72997362322	1305.30004882813
1801.23851066803	1307.30004882813
1803.74628108554	1304.30004882813
1806.25328520193	1316.19995117188
1808.75952334326	1307.59997558594
1811.2649958355	1310.09997558594
1813.76970300458	1300.40002441406
1816.27364517628	1308.09997558594
1818.77682267629	1296.40002441406
1821.27923583026	1303.19995117188
1823.78088496369	1302.90002441406
1826.28177040204	1308.19995117188
1828.78189247064	1297.80004882813
1831.28125149473	1308.59997558594
1833.77984779949	1301.40002441406
1836.27768170998	1300.69995117188
1838.77475355119	1304
1841.271063648	1301.30004882813
1843.76661232521	1295.40002441406
1846.26139990751	1304.90002441406
1848.75542671954	1301.19995117188
1851.2486930858	1300.19995117188
1853.74119933074	1303.40002441406
1856.23294577869	1305.09997558594
1858.72393275391	1300
1861.21416058054	1300.19995117188
1863.70362958267	1307.30004882813
1866.19234008426	1302.5
1868.6802924092	1301.90002441406
1871.16748688129	1301.19995117188
1873.65392382424	1293.30004882813
1876.13960356164	1305.69995117188
1878.62452641704	1305.19995117188
1881.10869271384	1304.19995117188
1883.59210277541	1305.80004882813
1886.07475692498	1301.40002441406
1888.55665548571	1302.40002441406
1891.03779878067	1295.69995117188
1893.51818713284	1303.30004882813
1895.99782086509	1298.09997558594
1898.47670030024	1305.80004882813
1900.95482576096	1299.40002441406
1903.43219756989	1300.80004882813
1905.90881604954	1297.5
1908.38468152235	1299.69995117188
1910.85979431064	1300
1913.33415473668	1288.80004882813
1915.80776312261	1297.69995117188
1918.28061979051	1300.09997558594
1920.75272506234	1308
1923.22407926001	1300.59997558594
1925.69468270529	1303.69995117188
1928.16453571989	1301
1930.63363862544	1300.30004882813
1933.10199174344	1303.5
1935.56959539533	1303
1938.03644990244	1301.30004882813
1940.50255558603	1299.80004882813
1942.96791276726	1307
1945.43252176718	1309.19995117188
1947.8963829068	1301.09997558594
1950.35949650697	1303.5
1952.8218628885	1294.19995117188
1955.2834823721	1293
1957.74435527836	1302.5
1960.20448192784	1306.19995117188
1962.66386264093	1296.19995117188
1965.12249773799	1302.80004882813
1967.58038753927	1301.30004882813
1970.03753236493	1298.30004882813
1972.49393253504	1297.19995117188
1974.94958836957	1307.5
1977.4045001884	1296.5
1979.85866831133	1295.59997558594
1982.31209305807	1309.5
1984.76477474823	1295.5
1987.21671370133	1305
1989.6679102368	1298.40002441406
1992.11836467399	1303.40002441406
1994.56807733213	1302.30004882813
1997.0170485304	1303.80004882813
1999.46527858786	1300.59997558594
2001.91276782348	1290
2004.35951655615	1290.80004882813
2006.80552510467	1298.90002441406
2009.25079378774	1306.30004882813
2011.69532292397	1303.09997558594
2014.13911283188	1292.5
2016.58216382991	1300.09997558594
2019.02447623639	1303.30004882813
2021.46605036956	1299.5
2023.90688654761	1301.80004882813
2026.34698508858	1308.5
2028.78634631045	1304.19995117188
2031.22497053111	1305.30004882813
2033.66285806835	1302.30004882813
2036.10000923987	1297.90002441406
2038.53642436328	1299.59997558594
2040.97210375611	1306.19995117188
2043.40704773578	1296
2045.84125661964	1297.5
2048.27473072492	1307.40002441406
2050.70747036878	1302.69995117188
2053.13947586829	1303.59997558594
2055.57074754041	1298.90002441406
2058.00128570205	1297.30004882813
2060.43109066998	1305.09997558594
2062.8601627609	1300.09997558594
2065.28850229143	1301.5
2067.71610957807	1297.59997558594
2070.14298493726	1297.80004882813
2072.56912868532	1290.59997558594
2074.99454113851	1305
2077.41922261297	1303.69995117188
2079.84317342476	1293.30004882813
2082.26639388986	1297.5
2084.68888432414	1295.40002441406
2087.1106450434	1303.5
2089.53167636331	1299.09997558594
2091.95197859949	1294.19995117188
2094.37155206745	1303.90002441406
2096.79039708261	1298.90002441406
2099.20851396029	1306.69995117188
2101.62590301575	1306.59997558594
2104.04256456411	1309.5
2106.45849892045	1297.90002441406
2108.87370639971	1308.90002441406
2111.28818731677	1307.59997558594
2113.70194198641	1298
2116.11497072333	1304.5
2118.52727384211	1311.5
2120.93885165726	1299.09997558594
2123.34970448321	1302
2125.75983263425	1304.19995117188
2128.16923642463	1301.69995117188
2130.57791616848	1305.30004882813
2132.98587217985	1308.30004882813
2135.3931047727	1306.59997558594
2137.79961426089	1300.69995117188
2140.20540095818	1305.40002441406
2142.61046517826	1309.40002441406
2145.01480723472	1304
2147.41842744104	1301.40002441406
2149.82132611063	1301.40002441406
2152.22350355681	1303.80004882813
2154.62496009279	1295.59997558594
2157.0256960317	1303.59997558594
2159.42571168658	1301.19995117188
2161.82500737036	1300.59997558594
2164.22358339589	1305.19995117188
2166.62144007595	1309.59997558594
2169.01857772318	1303.90002441406
2171.41499665018	1303
2173.81069716942	1309.80004882813
2176.20567959329	1305.80004882813
2178.59994423409	1305.59997558594
2180.99349140402	1303.69995117188
2183.38632141519	1299.90002441406
2185.77843457964	1291.80004882813
2188.16983120927	1301.19995117188
2190.56051161594	1301.69995117188
2192.95047611139	1299.80004882813
2195.33972500725	1304.69995117188
2197.72825861511	1308.80004882813
2200.11607724641	1307.19995117188
2202.50318121254	1303.30004882813
2204.88957082477	1308.5
2207.27524639429	1308.69995117188
2209.6602082322	1302.69995117188
2212.0444566495	1301.90002441406
2214.4279919571	1310.40002441406
2216.81081446582	1305.19995117188
2219.19292448638	1305.30004882813
2221.57432232942	1298.59997558594
2223.95500830547	1306.90002441406
2226.33498272498	1298.69995117188
2228.7142458983	1311.09997558594
2231.09279813569	1296.90002441406
2233.47063974732	1301.09997558594
2235.84777104327	1308.40002441406
2238.2241923335	1311.69995117188
2240.59990392792	1299.90002441406
2242.97490613632	1299.59997558594
2245.34919926839	1296.59997558594
2247.72278363376	1299.90002441406
2250.09565954192	1295.59997558594
2252.46782730231	1306.69995117188
2254.83928722425	1303.59997558594
2257.21003961698	1301
2259.58008478963	1300.19995117188
2261.94942305127	1305.40002441406
2264.31805471084	1300.69995117188
2266.68598007721	1309.09997558594
2269.05319945914	1300.80004882813
2271.4197131653	1300.80004882813
2273.78552150427	1306.69995117188
2276.15062478456	1300.09997558594
2278.51502331454	1301.69995117188
2280.87871740252	1302.69995117188
2283.24170735671	1301
2285.60399348521	1310.30004882813
2287.96557609605	1303.30004882813
2290.32645549714	1304.5
2292.68663199633	1307.30004882813
2295.04610590133	1298.5
2297.40487751981	1311.09997558594
2299.76294715931	1305.40002441406
2302.12031512727	1302.80004882813
2304.47698173107	1306.90002441406
2306.83294727796	1299.59997558594
2309.18821207512	1307.59997558594
2311.54277642963	1309.30004882813
2313.89664064847	1301.90002441406
2316.24980503852	1302
2318.6022699066	1290.59997558594
2320.95403555938	1310.19995117188
2323.30510230349	1306.40002441406
2325.65547044542	1307.80004882813
2328.0051402916	1301.80004882813
2330.35411214835	1307.30004882813
2332.7023863219	1306
2335.04996311837	1307.80004882813
2337.39684284382	1304.19995117188
2339.74302580418	1305.90002441406
2342.08851230529	1304.59997558594
2344.43330265291	1305.40002441406
2346.7773971527	1309.90002441406
2349.12079611023	1305.40002441406
2351.46349983096	1299.5
2353.80550862026	1305.09997558594
2356.14682278342	1304.09997558594
2358.48744262562	1310.69995117188
2360.82736845194	1304
2363.16660056738	1308.59997558594
2365.50513927683	1308.30004882813
2367.8429848851	1304.90002441406
2370.1801376969	1307.40002441406
2372.51659801683	1310.19995117188
2374.85236614941	1295.90002441406
2377.18744239906	1312.40002441406
2379.52182707011	1302.59997558594
2381.85552046679	1308.09997558594
2384.18852289322	1305.5
2386.52083465345	1306.09997558594
2388.85245605142	1310.09997558594
2391.18338739097	1304.69995117188
2393.51362897585	1303.19995117188
2395.84318110973	1304.80004882813
2398.17204409615	1304.69995117188
2400.50021823858	1313.59997558594
2402.82770384038	1312.09997558594
2405.15450120483	1307.5
2407.48061063509	1311.5
2409.80603243426	1309.09997558594
2412.13076690529	1309.30004882813
2414.4548143511	1317.5
2416.77817507445	1310.19995117188
2419.10084937804	1310.30004882813
2421.42283756447	1315.40002441406
2423.74413993625	1303.80004882813
2426.06475679575	1315.09997558594
2428.38468844531	1319.09997558594
2430.70393518711	1315.19995117188
2433.02249732329	1320.30004882813
2435.34037515584	1311.80004882813
2437.65756898669	1317.59997558594
2439.97407911767	1311.69995117188
2442.28990585049	1323.59997558594
2444.60504948679	1309.19995117188
2446.91951032808	1311.59997558594
2449.23328867581	1317.5
2451.54638483132	1309.09997558594
2453.85879909585	1321.30004882813
2456.17053177052	1310.69995117188
2458.48158315639	1313.90002441406
2460.79195355441	1310.80004882813
2463.10164326542	1306.69995117188
2465.41065259017	1315.69995117188
2467.71898182932	1319.30004882813
2470.02663128344	1315.19995117188
2472.33360125296	1314.5
2474.63989203825	1307.59997558594
2476.94550393958	1315.59997558594
2479.25043725712	1312.19995117188
2481.55469229093	1309.19995117188
2483.85826934098	1311.69995117188
2486.16116870713	1311.30004882813
2488.46339068916	1311.30004882813
2490.76493558676	1313
2493.06580369949	1312.19995117188
2495.36599532684	1308.5
2497.66551076817	1311.5
2499.96435032278	1320.30004882813
2502.26251428984	1314.5
2504.56000296845	1311.5
2506.85681665757	1317
2509.15295565612	1317.80004882813
2511.44842026287	1310.5
2513.74321077651	1315.90002441406
2516.03732749563	1312.5
2518.33077071873	1315.80004882813
2520.62354074419	1323.09997558594
2522.91563787031	1316.80004882813
2525.20706239528	1315.80004882813
2527.49781461721	1311.19995117188
2529.78789483408	1313.19995117188
2532.0773033438	1315.40002441406
2534.36604044416	1317.5
2536.65410643286	1312.40002441406
2538.9415016075	1309.80004882813
2541.22822626558	1312.80004882813
2543.51428070449	1313.69995117188
2545.79966522154	1308
2548.08438011393	1317
2550.36842567876	1312
2552.65180221302	1300
2554.93451001363	1315
2557.21654937738	1327.5
2559.49792060096	1314.5
2561.77862398098	1321.80004882813
2564.05865981395	1319.30004882813
2566.33802839626	1303.59997558594
2568.61673002421	1312.59997558594
2570.89476499399	1320
2573.17213360172	1319.19995117188
2575.44883614338	1314.80004882813
2577.72487291489	1320.69995117188
2580.00024421203	1311.69995117188
2582.27495033048	1316.69995117188
2584.54899156587	1320.90002441406
2586.82236821368	1313
2589.0950805693	1319.5
2591.36712892802	1316.19995117188
2593.63851358505	1316
2595.90923483547	1331.09997558594
2598.17929297426	1325.09997558594
2600.44868829631	1321.40002441406
2602.71742109642	1325.19995117188
2604.98549166927	1316.90002441406
2607.25290030944	1325.69995117188
2609.51964731142	1308.59997558594
2611.78573296958	1321.09997558594
2614.05115757822	1319.69995117188
2616.31592143149	1319.69995117188
2618.58002482349	1332.09997558594
2620.84346804817	1334
2623.10625139942	1327.09997558594
2625.36837517101	1333.30004882813
2627.6298396566	1338.30004882813
2629.89064514976	1347
2632.15079194395	1343.19995117188
2634.41028033254	1360.09997558594
2636.66911060878	1363.40002441406
2638.92728306582	1369.69995117188
2641.18479799672	1384.90002441406
2643.44165569444	1394.09997558594
2645.69785645182	1410.5
2647.95340056162	1422.30004882813
2650.20828831645	1424.09997558594
2652.46252000888	1431.09997558594
2654.71609593134	1426.59997558594
2656.96901637616	1439.19995117188
2659.22128163557	1437.90002441406
2661.47289200171	1447.80004882813
2663.72384776659	1444.90002441406
2665.97414922213	1445.90002441406
2668.22379666017	1451.59997558594
2670.4727903724	1454.09997558594
2672.72113065044	1443.69995117188
2674.9688177858	1443.80004882813
2677.21585206988	1429.30004882813
2679.46223379399	1419.80004882813
2681.70796324931	1419.09997558594
2683.95304072694	1406.69995117188
2686.19746651787	1397.09997558594
2688.44124091298	1381.40002441406
2690.68436420305	1381.40002441406
2692.92683667876	1369.30004882813
2695.16865863068	1369.40002441406
2697.40983034928	1361
2699.65035212492	1360.5
2701.89022424785	1347.80004882813
2704.12944700824	1356.40002441406
2706.36802069612	1344.59997558594
2708.60594560146	1340.30004882813
2710.84322201407	1345.69995117188
2713.0798502237	1344.90002441406
2715.31583051998	1334.30004882813
2717.55116319244	1331.80004882813
2719.78584853048	1334.59997558594
2722.01988682344	1326.09997558594
2724.2532783605	1315.5
2726.48602343079	1326.09997558594
2728.71812232329	1326.90002441406
2730.9495753269	1319.09997558594
2733.1803827304	1318.69995117188
2735.4105448225	1314.59997558594
2737.64006189173	1324.5
2739.86893422659	1317
2742.09716211544	1318.40002441406
2744.32474584653	1314.90002441406
2746.55168570802	1311.09997558594
2748.77798198795	1318.80004882813
2751.00363497426	1318.30004882813
2753.22864495479	1314
2755.45301221725	1315.90002441406
2757.67673704928	1316.90002441406
2759.89981973839	1317.30004882813
2762.12226057198	1316.90002441406
2764.34405983734	1311.5
2766.56521782169	1312
2768.7857348121	1310.90002441406
2771.00561109555	1315.19995117188
2773.22484695892	1316
2775.44344268897	1310
2777.66139857236	1309.09997558594
2779.87871489564	1317.90002441406
2782.09539194526	1309.40002441406
2784.31143000754	1315.30004882813
2786.52682936873	1313.40002441406
2788.74159031494	1312.5
2790.95571313218	1307.09997558594
2793.16919810637	1308.69995117188
2795.38204552329	1304.19995117188
2797.59425566864	1306.80004882813
2799.805828828	1316.59997558594
2802.01676528685	1305.19995117188
2804.22706533056	1311.80004882813
2806.43672924436	1313.5
2808.64575731343	1310.19995117188
2810.85414982279	1314
2813.06190705738	1299.19995117188
2815.26902930203	1311.59997558594
2817.47551684145	1306.19995117188
2819.68136996024	1312
2821.88658894291	1318
2824.09117407383	1306.80004882813
2826.29512563729	1317.09997558594
2828.49844391747	1308.19995117188
2830.70112919842	1309.09997558594
2832.90318176409	1317.69995117188
2835.10460189833	1310.90002441406
2837.30538988487	1311.09997558594
2839.50554600732	1312
2841.70507054922	1317
2843.90396379395	1311.30004882813
2846.10222602482	1315.30004882813
2848.29985752501	1321.30004882813
2850.49685857759	1303.30004882813
2852.69322946553	1313.80004882813
2854.88897047169	1314.90002441406
2857.08408187879	1306.40002441406
2859.27856396949	1308.19995117188
2861.4724170263	1311.90002441406
2863.66564133164	1306.59997558594
2865.85823716781	1308.09997558594
2868.050204817	1311.5
2870.2415445613	1314.5
2872.43225668266	1298.90002441406
2874.62234146295	1305.30004882813
2876.81179918393	1308.30004882813
2879.00063012722	1316.80004882813
2881.18883457435	1310.40002441406
2883.37641280674	1310.5
2885.56336510569	1307.19995117188
2887.7496917524	1305.40002441406
2889.93539302793	1312.59997558594
2892.12046921326	1331.90002441406
2894.30492058926	1311.19995117188
2896.48874743666	1316.69995117188
2898.67195003609	1317.40002441406
2900.85452866809	1321.5
2903.03648361305	1324.19995117188
2905.21781515128	1320.30004882813
2907.39852356295	1327.80004882813
2909.57860912814	1329.69995117188
2911.75807212682	1316.30004882813
2913.93691283883	1319.80004882813
2916.1151315439	1311.19995117188
2918.29272852166	1304.5
2920.46970405161	1306.80004882813
2922.64605841316	1311.30004882813
2924.82179188558	1305.09997558594
2926.99690474805	1306.5
2929.17139727962	1303.40002441406
2931.34526975924	1302.59997558594
2933.51852246574	1307.59997558594
2935.69115567784	1297.09997558594
2937.86316967414	1296.09997558594
2940.03456473313	1306.90002441406
2942.20534113318	1299.69995117188
2944.37549915256	1295.5
2946.54503906942	1302.90002441406
2948.71396116179	1296.90002441406
2950.8822657076	1301.80004882813
2953.04995298465	1298.19995117188
2955.21702327062	1294
2957.38347684312	1296.90002441406
2959.54931397958	1306.5
2961.71453495737	1298.30004882813
2963.87914005372	1308.09997558594
2966.04312954574	1297.80004882813
2968.20650371045	1307.30004882813
2970.36926282472	1293.69995117188
2972.53140716535	1298.69995117188
2974.69293700897	1297
2976.85385263216	1289
2979.01415431133	1292
2981.17384232278	1295.90002441406
2983.33291694274	1297.40002441406
2985.49137844726	1291.69995117188
2987.64922711234	1298.59997558594
2989.8064632138	1293.30004882813
2991.9630870274	1291.59997558594
2994.11909882875	1295.19995117188
2996.27449889334	1291.30004882813
2998.42928749659	1292.30004882813
3000.58346491374	1287
3002.73703141997	1283.90002441406
3004.8899872903	1284.5
3007.04233279965	1291.40002441406
3009.19406822284	1292.09997558594
3011.34519383455	1295.80004882813
3013.49570990936	1288.59997558594
3015.64561672172	1280.59997558594
3017.79491454597	1283.59997558594
3019.94360365632	1287.69995117188
3022.09168432689	1289.80004882813
3024.23915683165	1282.09997558594
3026.38602144448	1289.09997558594
3028.53227843913	1279.19995117188
3030.67792808923	1282.69995117188
3032.82297066831	1281.80004882813
3034.96740644975	1286.5
3037.11123570684	1286.30004882813
3039.25445871273	1280.40002441406
3041.39707574049	1281.80004882813
3043.53908706303	1275
3045.68049295316	1283.09997558594
3047.82129368358	1279.19995117188
3049.96148952684	1279
3052.1010807554	1276.90002441406
3054.24006764161	1280.90002441406
3056.37845045767	1277.5
3058.51622947568	1278.19995117188
3060.65340496763	1275.59997558594
3062.78997720535	1277.09997558594
3064.92594646061	1284.19995117188
3067.06131300501	1273.5
3069.19607711007	1276
3071.33023904715	1281.90002441406
3073.46379908752	1273.19995117188
3075.59675750233	1273.5
3077.7291145626	1277.30004882813
3079.86087053922	1279.80004882813
3081.99202570299	1271.09997558594
3084.12258032456	1272.19995117188
3086.25253467448	1280.69995117188
3088.38188902317	1278.30004882813
3090.51064364093	1272.90002441406
3092.63879879794	1278.80004882813
3094.76635476428	1278.19995117188
3096.89331180986	1282.80004882813
3099.01967020452	1275.09997558594
3101.14543021796	1270.5
3103.27059211975	1275.40002441406
3105.39515617934	1277.90002441406
3107.51912266608	1277.80004882813
3109.64249184919	1271.90002441406
3111.76526399774	1273.19995117188
3113.88743938072	1266.90002441406
3116.00901826698	1267.80004882813
3118.13000092523	1272.5
3120.2503876241	1269.19995117188
3122.37017863206	1273.30004882813
3124.48937421748	1264.90002441406
3126.6079746486	1280.80004882813
3128.72598019354	1263.5
3130.84339112029	1267.5
3132.96020769673	1278.80004882813
3135.07643019061	1274.09997558594
3137.19205886957	1267.19995117188
3139.3070940011	1267.90002441406
3141.42153585259	1266.40002441406
3143.5353846913	1271.80004882813
3145.64864078438	1266.09997558594
3147.76130439882	1271.19995117188
3149.87337580154	1261
3151.98485525929	1265.69995117188
3154.09574303872	1266.80004882813
3156.20603940634	1265.40002441406
3158.31574462857	1268.80004882813
3160.42485897167	1263.5
3162.53338270181	1263
3164.64131608498	1254.5
3166.74865938712	1267.80004882813
3168.85541287398	1257
3170.96157681123	1266.80004882813
3173.0671514644	1270.5
3175.17213709889	1264.09997558594
3177.27653397998	1265.09997558594
3179.38034237284	1264.5
3181.48356254248	1261.59997558594
3183.58619475382	1271.09997558594
3185.68823927165	1270.69995117188
3187.78969636061	1263
3189.89056628524	1258.80004882813
3191.99084930995	1263.40002441406
3194.09054569901	1261
3196.18965571659	1257.5
3198.28817962671	1257
3200.38611769327	1258.69995117188
3202.48347018006	1260.09997558594
3204.58023735073	1259.40002441406
3206.67641946881	1259.5
3208.77201679769	1262.09997558594
3210.86702960065	1265.69995117188
3212.96145814084	1262.40002441406
3215.05530268128	1266.40002441406
3217.14856348487	1269
3219.24124081437	1260
3221.33333493243	1262.5
3223.42484610157	1268.59997558594
3225.51577458416	1270.19995117188
3227.60612064247	1264.90002441406
3229.69588453864	1263.69995117188
3231.78506653466	1271.09997558594
3233.87366689244	1268.59997558594
3235.9616858737	1260.09997558594
3238.04912374008	1258.69995117188
3240.13598075307	1264.30004882813
3242.22225717405	1261.80004882813
3244.30795326425	1264.80004882813
3246.39306928479	1261.90002441406
3248.47760549664	1260.90002441406
3250.56156216068	1259.90002441406
3252.64493953762	1248.09997558594
3254.72773788807	1257.19995117188
3256.8099574725	1257.59997558594
3258.89159855124	1249.69995117188
3260.97266138451	1249
3263.05314623241	1247.19995117188
3265.13305335488	1242.69995117188
3267.21238301175	1246.59997558594
3269.29113546272	1249.69995117188
3271.36931096736	1252
3273.4469097851	1252.90002441406
3275.52393217526	1249.5
3277.60037839702	1243.80004882813
3279.67624870941	1246.19995117188
3281.75154337138	1242.80004882813
3283.8262626417	1247.90002441406
3285.90040677904	1249.80004882813
3287.97397604193	1247.69995117188
3290.04697068876	1249.40002441406
3292.11939097781	1240.19995117188
3294.19123716721	1248
3296.26250951497	1247.90002441406
3298.33320827897	1241.80004882813
3300.40333371696	1240.5
3302.47288608655	1243.5
3304.54186564524	1246.19995117188
3306.61027265036	1234.5
3308.67810735915	1236.80004882813
3310.74537002869	1244.09997558594
3312.81206091594	1250.30004882813
3314.87818027774	1253
3316.94372837077	1240
3319.00870545161	1242.90002441406
3321.07311177668	1239.80004882813
3323.13694760229	1242.40002441406
3325.2002131846	1252.5
3327.26290877964	1240.40002441406
3329.32503464334	1240.80004882813
3331.38659103145	1242.09997558594
3333.4475781996	1245.90002441406
3335.50799640332	1244.09997558594
3337.56784589797	1242.59997558594
3339.62712693879	1237.09997558594
3341.68583978089	1236.19995117188
3343.74398467924	1245.09997558594
3345.80156188869	1244.19995117188
3347.85857166394	1242.19995117188
3349.91501425956	1243.5
3351.97088992999	1239
3354.02619892956	1236.19995117188
3356.0809415124	1235.69995117188
3358.13511793259	1239.69995117188
3360.18872844401	1238.19995117188
3362.24177330044	1237.5
3364.29425275552	1234.19995117188
3366.34616706274	1245.09997558594
3368.39751647548	1234.90002441406
3370.44830124696	1237.80004882813
3372.49852163029	1237.5
3374.54817787843	1233.40002441406
3376.5972702442	1235.5
3378.64579898031	1235.90002441406
3380.69376433931	1242
3382.74116657361	1241.59997558594
3384.78800593552	1237.69995117188
3386.83428267718	1240.09997558594
3388.8799970506	1235.59997558594
3390.92514930767	1230.59997558594
3392.96973970014	1234.69995117188
3395.01376847962	1229.90002441406
3397.05723589757	1228.5
3399.10014220533	1231.80004882813
3401.1424876541	1238.5
3403.18427249495	1233.09997558594
3405.22549697881	1231.69995117188
3407.26616135646	1230.19995117188
3409.30626587856	1233.69995117188
3411.34581079563	1235.5
3413.38479635805	1231.59997558594
3415.42322281605	1238.30004882813
3417.46109041976	1228.40002441406
3419.49839941912	1224.90002441406
3421.53515006399	1235.90002441406
3423.57134260405	1229.90002441406
3425.60697728886	1235.40002441406
3427.64205436783	1234.40002441406
3429.67657409025	1232.80004882813
3431.71053670525	1232.69995117188
3433.74394246185	1228.5
3435.77679160891	1235.59997558594
3437.80908439515	1230.90002441406
3439.84082106917	1233.59997558594
3441.87200187943	1227.69995117188
3443.90262707421	1227.80004882813
3445.93269690172	1234.5
3447.96221160996	1227.90002441406
3449.99117144686	1229.09997558594
3452.01957666015	1236.59997558594
3454.04742749746	1231
3456.07472420626	1225.90002441406
3458.1014670339	1226.59997558594
3460.12765622756	1228
3462.15329203432	1232.19995117188
3464.17837470108	1224.69995117188
3466.20290447463	1231.40002441406
3468.22688160161	1219.80004882813
3470.25030632851	1224.19995117188
3472.2731789017	1224.59997558594
3474.29549956739	1225.40002441406
3476.31726857166	1224.09997558594
3478.33848616045	1225
3480.35915257955	1225.30004882813
3482.37926807462	1225.59997558594
3484.39883289117	1222.09997558594
3486.41784727458	1223.40002441406
3488.43631147007	1222.5
3490.45422572275	1231.09997558594
3492.47159027755	1228.90002441406
3494.4884053793	1222.40002441406
3496.50467127263	1222.69995117188
3498.5203882021	1224.69995117188
3500.53555641208	1226.90002441406
3502.5501761468	1220.90002441406
3504.56424765036	1223.30004882813
3506.57777116674	1219.5
3508.59074693973	1223.30004882813
3510.603175213	1222.30004882813
3512.61505623009	1221.40002441406
3514.62639023438	1217.19995117188
3516.63717746911	1221.80004882813
3518.64741817739	1217.90002441406
3520.65711260216	1217.80004882813
3522.66626098625	1219.69995117188
3524.67486357232	1217
3526.6829206029	1216.69995117188
3528.69043232037	1217.80004882813
3530.69739896698	1220.19995117188
3532.70382078481	1224.09997558594
3534.70969801583	1217
3536.71503090183	1221.69995117188
3538.71981968447	1212.90002441406
3540.72406460529	1213.69995117188
3542.72776590566	1213.80004882813
3544.7309238268	1213.90002441406
3546.7335386098	1216.40002441406
3548.7356104956	1216.30004882813
3550.737139725	1212.40002441406
3552.73812653866	1222.59997558594
3554.73857117706	1218.90002441406
3556.73847388059	1217.80004882813
3558.73783488944	1216.80004882813
3560.7366544437	1216.80004882813
3562.73493278328	1211.5
3564.73267014797	1217.90002441406
3566.7298667774	1213.90002441406
3568.72652291106	1215.09997558594
3570.72263878828	1218.5
3572.71821464827	1218.40002441406
3574.71325073007	1222.09997558594
3576.70774727257	1220.19995117188
3578.70170451455	1211.5
3580.6951226946	1213.19995117188
3582.68800205121	1214.5
3584.68034282266	1208.30004882813
3586.67214524714	1212.40002441406
3588.66340956266	1214.30004882813
3590.6541360071	1210.40002441406
3592.6443248182	1202.80004882813
3594.63397623352	1207.5
3596.6230904905	1212
3598.61166782642	1209.30004882813
3600.59970847842	1215.30004882813
3602.58721268348	1209.80004882813
3604.57418067846	1210.90002441406
3606.56061270003	1210.5
3608.54650898475	1209.5
3610.53186976901	1212.59997558594
3612.51669528905	1205.09997558594
3614.50098578098	1209.69995117188
3616.48474148074	1209.59997558594
3618.46796262413	1208.90002441406
3620.45064944681	1214.90002441406
3622.43280218428	1207.09997558594
3624.41442107188	1204.09997558594
3626.39550634484	1213.30004882813
3628.37605823819	1204.19995117188
3630.35607698685	1207.90002441406
3632.33556282556	1213
3634.31451598894	1207.59997558594
3636.29293671143	1212.59997558594
3638.27082522735	1212.80004882813
3640.24818177084	1208.59997558594
3642.22500657592	1205.80004882813
3644.20129987644	1206.19995117188
3646.17706190608	1208
3648.15229289843	1204.40002441406
3650.12699308687	1200
3652.10116270465	1209.09997558594
3654.07480198488	1209.90002441406
3656.04791116049	1206.90002441406
3658.02049046431	1203.59997558594
3659.99254012895	1206.5
3661.96406038692	1209.30004882813
3663.93505147056	1209.30004882813
3665.90551361207	1207.30004882813
3667.87544704349	1208.30004882813
3669.84485199668	1204.40002441406
3671.81372870341	1203.5
3673.78207739523	1204.30004882813
3675.7498983036	1202.90002441406
3677.71719165977	1200.30004882813
3679.68395769488	1204
3681.65019663991	1203
3683.61590872567	1200.5
3685.58109418282	1204.30004882813
3687.54575324187	1200.90002441406
3689.5098861332	1205.09997558594
3691.473493087	1205.69995117188
3693.43657433333	1206.5
3695.39913010208	1201.59997558594
3697.36116062301	1207.09997558594
3699.32266612569	1205.5
3701.28364683959	1199.09997558594
3703.24410299397	1202.40002441406
3705.20403481795	1204.19995117188
3707.16344254053	1204.09997558594
3709.12232639052	1201.5
3711.08068659659	1200.5
3713.03852338724	1202.40002441406
3714.99583699084	1197.69995117188
3716.95262763558	1203.09997558594
3718.90889554951	1196.59997558594
3720.86464096053	1198.19995117188
3722.81986409636	1198.30004882813
3724.7745651846	1202.19995117188
3726.72874445265	1203.19995117188
3728.6824021278	1203.09997558594
3730.63553843715	1198.59997558594
3732.58815360767	1198.30004882813
3734.54024786615	1200
3736.49182143924	1196.80004882813
3738.44287455343	1196.90002441406
3740.39340743505	1199.30004882813
3742.34342031027	1196.19995117188
3744.29291340513	1201
3746.24188694546	1198.59997558594
3748.190341157	1197.40002441406
3750.13827626527	1199.59997558594
3752.08569249567	1202.80004882813
3754.03259007345	1191.69995117188
3755.97896922367	1197.59997558594
3757.92483017124	1199.5
3759.87017314094	1192.30004882813
3761.81499835737	1196.09997558594
3763.75930604498	1196.09997558594
3765.70309642803	1198
3767.64636973068	1199.80004882813
3769.58912617689	1195.30004882813
3771.53136599047	1198.69995117188
3773.47308939509	1202.09997558594
3775.41429661421	1193.09997558594
